time_s,adc_raw,voltage
0.0000,544,1.7548
0.0044,794,2.5613
0.0088,654,2.1097
0.0132,307,0.9903
0.0176,286,0.9226
0.0219,675,2.1774
0.0263,800,2.5806
0.0306,495,1.5968
0.0350,211,0.6806
0.0393,372,1.2000
0.0436,715,2.3065
0.0480,701,2.2613
0.0524,367,1.1839
0.0570,286,0.9226
0.0615,641,2.0677
0.0659,800,2.5806
0.0702,571,1.8419
0.0746,300,0.9677
0.0789,415,1.3387
0.0832,719,2.3194
0.0873,713,2.3000
0.0915,414,1.3355
0.0957,242,0.7806
0.0999,459,1.4806
0.1041,757,2.4419
0.1082,706,2.2774
0.1124,371,1.1968
0.1166,248,0.8000
0.1208,543,1.7516
0.1250,765,2.4677
0.1292,627,2.0226
0.1334,318,1.0258
0.1375,339,1.0935
0.1417,691,2.2290
0.1459,780,2.5161
0.1501,519,1.6742
0.1543,231,0.7452
0.1584,317,1.0226
0.1626,686,2.2129
0.1668,766,2.4710
0.1710,494,1.5935
0.1753,262,0.8452
0.1795,421,1.3581
0.1837,721,2.3258
0.1879,701,2.2613
0.1921,385,1.2419
0.1963,258,0.8323
0.2005,538,1.7355
0.2046,778,2.5097
0.2088,645,2.0806
0.2130,297,0.9581
0.2172,253,0.8161
0.2213,610,1.9677
0.2255,796,2.5677
0.2297,610,1.9677
0.2339,300,0.9677
0.2381,317,1.0226
0.2422,650,2.0968
0.2464,727,2.3452
0.2506,474,1.5290
0.2548,246,0.7935
0.2590,431,1.3903
0.2632,811,2.6161
0.2673,776,2.5032
0.2715,374,1.2065
0.2757,166,0.5355
0.2799,420,1.3548
0.2841,742,2.3935
0.2882,686,2.2129
0.2924,348,1.1226
0.2966,228,0.7355
0.3008,507,1.6355
0.3050,733,2.3645
0.3091,609,1.9645
0.3133,294,0.9484
0.3175,274,0.8839
0.3217,631,2.0355
0.3259,781,2.5194
0.3300,565,1.8226
0.3342,266,0.8581
0.3384,342,1.1032
0.3426,727,2.3452
0.3468,819,2.6419
0.3509,547,1.7645
0.3551,277,0.8935
0.3593,373,1.2032
0.3635,676,2.1806
0.3676,704,2.2710
0.3718,419,1.3516
0.3760,252,0.8129
0.3802,475,1.5323
0.3844,757,2.4419
0.3885,707,2.2806
0.3927,412,1.3290
0.3969,384,1.2387
0.4011,777,2.5065
0.4052,1003,3.2355
0.4094,898,2.8968
0.4136,447,1.4419
0.4178,318,1.0258
0.4220,629,2.0290
0.4261,755,2.4355
0.4303,528,1.7032
0.4345,252,0.8129
0.4387,361,1.1645
0.4428,718,2.3161
0.4470,746,2.4065
0.4512,436,1.4065
0.4554,265,0.8548
0.4596,491,1.5839
0.4637,781,2.5194
0.4679,698,2.2516
0.4722,308,0.9935
0.4765,172,0.5548
0.4807,475,1.5323
0.4849,726,2.3419
0.4891,616,1.9871
0.4933,289,0.9323
0.4976,261,0.8419
0.5017,604,1.9484
0.5059,763,2.4613
0.5101,562,1.8129
0.5143,252,0.8129
0.5184,307,0.9903
0.5226,682,2.2000
0.5268,772,2.4903
0.5310,488,1.5742
0.5351,227,0.7323
0.5393,367,1.1839
0.5435,672,2.1677
0.5477,649,2.0935
0.5519,328,1.0581
0.5561,194,0.6258
0.5602,474,1.5290
0.5644,752,2.4258
0.5686,649,2.0935
0.5728,284,0.9161
0.5769,190,0.6129
0.5812,524,1.6903
0.5854,735,2.3710
0.5897,567,1.8290
0.5939,246,0.7935
0.5982,265,0.8548
0.6025,612,1.9742
0.6067,686,2.2129
0.6110,412,1.3290
0.6153,195,0.6290
0.6195,375,1.2097
0.6238,700,2.2581
0.6281,675,2.1774
0.6323,318,1.0258
0.6366,167,0.5387
0.6409,453,1.4613
0.6453,688,2.2194
0.6495,538,1.7355
0.6538,230,0.7419
0.6581,271,0.8742
0.6623,656,2.1161
0.6666,764,2.4645
0.6709,488,1.5742
0.6751,231,0.7452
0.6794,399,1.2871
0.6838,754,2.4323
0.6880,736,2.3742
0.6924,394,1.2710
0.6967,273,0.8806
0.7010,559,1.8032
0.7054,743,2.3968
0.7097,574,1.8516
0.7140,272,0.8774
0.7183,341,1.1000
0.7227,701,2.2613
0.7270,742,2.3935
0.7313,429,1.3839
0.7357,229,0.7387
0.7400,472,1.5226
0.7443,785,2.5323
0.7487,719,2.3194
0.7530,380,1.2258
0.7573,308,0.9935
0.7617,651,2.1000
0.7660,793,2.5581
0.7703,545,1.7581
0.7746,246,0.7935
0.7790,358,1.1548
0.7833,728,2.3484
0.7878,766,2.4710
0.7921,445,1.4355
0.7965,260,0.8387
0.8008,513,1.6548
0.8051,735,2.3710
0.8093,595,1.9194
0.8136,274,0.8839
0.8179,290,0.9355
0.8222,669,2.1581
0.8265,787,2.5387
0.8308,511,1.6484
0.8351,246,0.7935
0.8394,419,1.3516
0.8437,782,2.5226
0.8480,752,2.4258
0.8523,390,1.2581
0.8566,273,0.8806
0.8608,581,1.8742
0.8652,784,2.5290
0.8695,587,1.8935
0.8739,247,0.7968
0.8782,310,1.0000
0.8825,702,2.2645
0.8868,777,2.5065
0.8911,453,1.4613
0.8954,203,0.6548
0.8997,410,1.3226
0.9040,753,2.4290
0.9083,710,2.2903
0.9126,347,1.1194
0.9168,256,0.8258
0.9211,624,2.0129
0.9254,832,2.6839
0.9297,606,1.9548
0.9340,273,0.8806
0.9383,333,1.0742
0.9426,708,2.2839
0.9469,770,2.4839
0.9512,440,1.4194
0.9555,175,0.5645
0.9598,380,1.2258
0.9640,728,2.3484
0.9684,676,2.1806
0.9727,321,1.0355
0.9769,228,0.7355
0.9812,566,1.8258
0.9856,763,2.4613
0.9898,572,1.8452
0.9941,268,0.8645
0.9985,354,1.1419
1.0028,729,2.3516
1.0071,752,2.4258
1.0115,407,1.3129
1.0158,213,0.6871
1.0201,469,1.5129
1.0244,778,2.5097
1.0288,715,2.3065
1.0331,350,1.1290
1.0375,244,0.7871
1.0418,590,1.9032
1.0462,767,2.4742
1.0505,526,1.6968
1.0548,230,0.7419
1.0592,353,1.1387
1.0635,719,2.3194
1.0678,724,2.3355
1.0722,384,1.2387
1.0767,308,0.9935
1.0812,720,2.3226
1.0855,996,3.2129
1.0898,875,2.8226
1.0942,510,1.6452
1.0985,458,1.4774
1.1028,757,2.4419
1.1071,818,2.6387
1.1114,515,1.6613
1.1157,274,0.8839
1.1199,461,1.4871
1.1242,761,2.4548
1.1285,680,2.1935
1.1328,288,0.9290
1.1371,183,0.5903
1.1414,558,1.8000
1.1457,773,2.4935
1.1500,560,1.8065
1.1543,235,0.7581
1.1586,309,0.9968
1.1628,684,2.2065
1.1671,732,2.3613
1.1714,402,1.2968
1.1757,203,0.6548
1.1800,458,1.4774
1.1843,779,2.5129
1.1886,687,2.2161
1.1929,297,0.9581
1.1972,216,0.6968
1.2015,593,1.9129
1.2059,790,2.5484
1.2102,547,1.7645
1.2145,198,0.6387
1.2188,280,0.9032
1.2232,665,2.1452
1.2275,710,2.2903
1.2319,367,1.1839
1.2362,185,0.5968
1.2405,473,1.5258
1.2449,749,2.4161
1.2492,629,2.0290
1.2536,259,0.8355
1.2579,227,0.7323
1.2622,613,1.9774
1.2665,732,2.3613
1.2709,438,1.4129
1.2752,192,0.6194
1.2795,379,1.2226
1.2839,696,2.2452
1.2882,634,2.0452
1.2925,260,0.8387
1.2968,145,0.4677
1.3011,489,1.5774
1.3054,732,2.3613
1.3097,566,1.8258
1.3141,247,0.7968
1.3183,290,0.9355
1.3226,657,2.1194
1.3269,725,2.3387
1.3312,401,1.2935
1.3355,179,0.5774
1.3398,411,1.3258
1.3441,737,2.3774
1.3485,649,2.0935
1.3528,292,0.9419
1.3571,220,0.7097
1.3614,552,1.7806
1.3657,738,2.3806
1.3700,547,1.7645
1.3744,259,0.8355
1.3788,380,1.2258
1.3831,744,2.4000
1.3875,762,2.4581
1.3918,432,1.3935
1.3961,277,0.8935
1.4004,566,1.8258
1.4047,848,2.7355
1.4090,724,2.3355
1.4133,339,1.0935
1.4176,253,0.8161
1.4219,579,1.8677
1.4262,724,2.3355
1.4305,508,1.6387
1.4348,267,0.8613
1.4390,409,1.3194
1.4434,743,2.3968
1.4477,730,2.3548
1.4520,394,1.2710
1.4563,253,0.8161
1.4605,553,1.7839
1.4648,825,2.6613
1.4691,701,2.2613
1.4734,378,1.2194
1.4777,345,1.1129
1.4820,645,2.0806
1.4863,745,2.4032
1.4906,537,1.7323
1.4950,286,0.9226
1.4993,405,1.3065
1.5037,720,2.3226
1.5080,696,2.2452
1.5123,362,1.1677
1.5167,257,0.8290
1.5210,585,1.8871
1.5253,825,2.6613
1.5296,670,2.1613
1.5340,328,1.0581
1.5383,359,1.1581
1.5426,725,2.3387
1.5469,777,2.5065
1.5513,453,1.4613
1.5556,253,0.8161
1.5599,467,1.5065
1.5643,731,2.3581
1.5686,638,2.0581
1.5729,306,0.9871
1.5772,262,0.8452
1.5816,625,2.0161
1.5859,787,2.5387
1.5902,561,1.8097
1.5946,276,0.8903
1.5989,391,1.2613
1.6032,760,2.4516
1.6075,789,2.5452
1.6118,470,1.5161
1.6161,294,0.9484
1.6204,540,1.7419
1.6247,796,2.5677
1.6290,685,2.2097
1.6333,341,1.1000
1.6376,300,0.9677
1.6419,646,2.0839
1.6462,771,2.4871
1.6505,531,1.7129
1.6548,274,0.8839
1.6591,398,1.2839
1.6634,721,2.3258
1.6677,709,2.2871
1.6719,376,1.2129
1.6762,226,0.7290
1.6805,517,1.6677
1.6848,794,2.5613
1.6891,671,2.1645
1.6934,321,1.0355
1.6977,298,0.9613
1.7020,667,2.1516
1.7064,792,2.5548
1.7107,495,1.5968
1.7151,199,0.6419
1.7194,371,1.1968
1.7238,745,2.4032
1.7281,747,2.4097
1.7325,427,1.3774
1.7368,368,1.1871
1.7411,773,2.4935
1.7455,1001,3.2290
1.7499,821,2.6484
1.7543,389,1.2548
1.7589,427,1.3774
1.7636,781,2.5194
1.7682,716,2.3097
1.7728,318,1.0258
1.7773,251,0.8097
1.7817,613,1.9774
1.7861,756,2.4387
1.7904,511,1.6484
1.7947,228,0.7355
1.7992,354,1.1419
1.8035,699,2.2548
1.8077,714,2.3032
1.8119,399,1.2871
1.8234,709,2.2871
1.8279,716,2.3097
1.8325,356,1.1484
1.8369,236,0.7613
1.8412,561,1.8097
1.8454,768,2.4774
1.8499,588,1.8968
1.8542,306,0.9871
1.8584,322,1.0387
1.8626,615,1.9839
1.8668,675,2.1774
1.8709,415,1.3387
1.8751,200,0.6452
1.8793,370,1.1935
1.8835,706,2.2774
1.8877,699,2.2548
1.8935,277,0.8935
1.8978,292,0.9419
1.9023,691,2.2290
1.9067,781,2.5194
1.9110,489,1.5774
1.9153,218,0.7032
1.9195,369,1.1903
1.9237,730,2.3548
1.9280,747,2.4097
1.9322,373,1.2032
1.9364,157,0.5065
1.9407,423,1.3645
1.9450,717,2.3129
1.9493,615,1.9839
1.9535,273,0.8806
1.9577,234,0.7548
1.9619,602,1.9419
1.9662,768,2.4774
1.9704,513,1.6548
1.9747,173,0.5581
1.9790,264,0.8516
1.9834,666,2.1484
1.9879,708,2.2839
1.9923,360,1.1613
1.9966,213,0.6871
2.0010,521,1.6806
2.0052,771,2.4871
2.0094,628,2.0258
2.0139,276,0.8903
2.0182,325,1.0484
2.0225,725,2.3387
2.0267,821,2.6484
2.0309,516,1.6645
2.0351,230,0.7419
2.0394,400,1.2903
2.0436,772,2.4903
2.0478,760,2.4516
2.0520,381,1.2290
2.0562,199,0.6419
2.0604,482,1.5548
2.0647,793,2.5581
2.0689,710,2.2903
2.0731,340,1.0968
2.0773,261,0.8419
2.0815,619,1.9968
2.0858,833,2.6871
2.0900,638,2.0581
2.0942,307,0.9903
2.0984,350,1.1290
2.1026,718,2.3161
2.1068,789,2.5452
2.1111,472,1.5226
2.1154,216,0.6968
2.1197,419,1.3516
2.1240,785,2.5323
2.1283,757,2.4419
2.1326,378,1.2194
2.1369,250,0.8065
2.1412,585,1.8871
2.1455,811,2.6161
2.1498,619,1.9968
2.1541,276,0.8903
2.1583,344,1.1097
2.1627,767,2.4742
2.1670,841,2.7129
2.1712,494,1.5935
2.1756,225,0.7258
2.1798,417,1.3452
2.1841,767,2.4742
2.1884,731,2.3581
2.1927,349,1.1258
2.1970,232,0.7484
2.2013,593,1.9129
2.2056,820,2.6452
2.2099,612,1.9742
2.2141,254,0.8194
2.2184,296,0.9548
2.2227,701,2.2613
2.2270,803,2.5903
2.2313,481,1.5516
2.2357,235,0.7581
2.2400,474,1.5290
2.2443,841,2.7129
2.2485,803,2.5903
2.2529,396,1.2774
2.2571,272,0.8774
2.2614,632,2.0387
2.2657,843,2.7194
2.2700,610,1.9677
2.2744,260,0.8387
2.2789,355,1.1452
2.2832,733,2.3645
2.2877,760,2.4516
2.2920,397,1.2806
2.2963,210,0.6774
2.3006,502,1.6194
2.3050,791,2.5516
2.3093,665,2.1452
2.3135,293,0.9452
2.3178,253,0.8161
2.3221,640,2.0645
2.3263,805,2.5968
2.3306,545,1.7581
2.3349,228,0.7355
2.3391,342,1.1032
2.3434,735,2.3710
2.3476,765,2.4677
2.3519,398,1.2839
2.3562,190,0.6129
2.3605,481,1.5516
2.3647,819,2.6419
2.3690,750,2.4194
2.3733,428,1.3806
2.3776,433,1.3968
2.3818,879,2.8355
2.3861,1003,3.2355
2.3904,807,2.6032
2.3947,372,1.2000
2.3989,359,1.1581
2.4032,723,2.3323
2.4076,779,2.5129
2.4118,415,1.3387
2.4162,207,0.6677
2.4205,485,1.5645
2.4248,792,2.5548
2.4290,683,2.2032
2.4334,295,0.9516
2.4377,242,0.7806
2.4420,639,2.0613
2.4463,815,2.6290
2.4505,555,1.7903
2.4548,226,0.7290
2.4591,343,1.1065
2.4634,732,2.3613
2.4676,773,2.4935
2.4719,414,1.3355
2.4763,208,0.6710
2.4805,489,1.5774
2.4848,800,2.5806
2.4891,702,2.2645
2.4934,316,1.0194
2.4977,247,0.7968
2.5020,623,2.0097
2.5062,787,2.5387
2.5105,521,1.6806
2.5148,200,0.6452
2.5191,323,1.0419
2.5234,717,2.3129
2.5277,743,2.3968
2.5319,383,1.2355
2.5363,190,0.6129
2.5407,487,1.5710
2.5452,769,2.4806
2.5495,611,1.9710
2.5548,218,0.7032
2.5594,377,1.2161
2.5651,787,2.5387
2.5696,596,1.9226
2.5740,216,0.6968
2.5784,266,0.8581
2.5828,680,2.1935
2.5872,749,2.4161
2.5915,379,1.2226
2.5961,117,0.3774
2.6005,401,1.2935
2.6049,709,2.2871
2.6091,595,1.9194
2.6135,224,0.7226
2.6179,192,0.6194
2.6223,598,1.9290
2.6268,739,2.3839
2.6310,468,1.5097
2.6353,206,0.6645
2.6395,363,1.1710
2.6437,722,2.3290
2.6479,720,2.3226
2.6521,377,1.2161
2.6563,203,0.6548
2.6605,485,1.5645
2.6651,788,2.5419
2.6696,634,2.0452
2.6740,268,0.8645
2.6786,305,0.9839
2.6831,720,2.3226
2.6879,736,2.3742
2.6924,355,1.1452
2.6968,212,0.6839
2.7011,547,1.7645
2.7052,815,2.6290
2.7094,685,2.2097
2.7136,330,1.0645
2.7178,287,0.9258
2.7219,654,2.1097
2.7261,816,2.6323
2.7305,537,1.7323
2.7348,223,0.7194
2.7391,369,1.1903
2.7435,775,2.5000
2.7480,766,2.4710
2.7525,347,1.1194
2.7569,186,0.6000
2.7613,542,1.7484
2.7656,789,2.5452
2.7699,607,1.9581
2.7742,275,0.8871
2.7783,299,0.9645
2.7825,674,2.1742
2.7867,792,2.5548
2.7909,523,1.6871
2.7951,246,0.7935
2.7993,393,1.2677
2.8036,757,2.4419
2.8079,752,2.4258
2.8122,395,1.2742
2.8164,226,0.7290
2.8206,503,1.6226
2.8247,786,2.5355
2.8289,693,2.2355
2.8331,334,1.0774
2.8372,244,0.7871
2.8414,584,1.8839
2.8456,805,2.5968
2.8497,642,2.0710
2.8539,307,0.9903
2.8581,293,0.9452
2.8622,646,2.0839
2.8664,795,2.5645
2.8706,558,1.8000
2.8749,282,0.9097
2.8792,414,1.3355
2.8834,790,2.5484
2.8876,831,2.6806
2.8917,490,1.5806
2.8959,270,0.8710
2.9001,486,1.5677
2.9042,800,2.5806
2.9084,756,2.4387
2.9126,402,1.2968
2.9167,259,0.8355
2.9209,542,1.7484
2.9251,784,2.5290
2.9292,658,2.1226
2.9334,300,0.9677
2.9376,247,0.7968
2.9417,603,1.9452
2.9459,787,2.5387
2.9501,588,1.8968
2.9543,271,0.8742
2.9584,311,1.0032
2.9626,679,2.1903
2.9668,779,2.5129
2.9709,503,1.6226
2.9751,248,0.8000
2.9792,392,1.2645
2.9834,733,2.3645
2.9876,731,2.3581
2.9918,398,1.2839
2.9959,236,0.7613
3.0001,518,1.6710
3.0043,860,2.7742
3.0084,856,2.7613
3.0126,560,1.8065
3.0168,531,1.7129
3.0209,844,2.7226
3.0251,955,3.0806
3.0293,683,2.2032
3.0334,290,0.9355
3.0376,275,0.8871
3.0418,647,2.0871
3.0460,774,2.4968
3.0501,528,1.7032
3.0543,229,0.7387
3.0584,308,0.9935
3.0626,678,2.1871
3.0668,735,2.3710
3.0709,437,1.4097
3.0751,203,0.6548
3.0792,369,1.1903
3.0834,716,2.3097
3.0876,711,2.2935
3.0917,373,1.2032
3.0959,205,0.6613
3.1001,451,1.4548
3.1042,741,2.3903
3.1084,664,2.1419
3.1125,311,1.0032
3.1167,209,0.6742
3.1209,523,1.6871
3.1250,748,2.4129
3.1292,603,1.9452
3.1334,264,0.8516
3.1375,242,0.7806
3.1417,606,1.9548
3.1459,764,2.4645
3.1501,545,1.7581
3.1542,244,0.7871
3.1584,304,0.9806
3.1625,677,2.1839
3.1667,758,2.4452
3.1709,463,1.4935
3.1752,215,0.6935
3.1794,393,1.2677
3.1836,729,2.3516
3.1878,714,2.3032
3.1920,368,1.1871
3.1961,209,0.6742
3.2003,472,1.5226
3.2044,750,2.4194
3.2086,656,2.1161
3.2128,297,0.9581
3.2169,211,0.6806
3.2211,538,1.7355
3.2252,744,2.4000
3.2294,575,1.8548
3.2336,240,0.7742
3.2378,247,0.7968
3.2419,617,1.9903
3.2461,738,2.3806
3.2503,487,1.5710
3.2544,205,0.6613
3.2586,311,1.0032
3.2627,688,2.2194
3.2669,735,2.3710
3.2711,424,1.3677
3.2752,214,0.6903
3.2794,414,1.3355
3.2836,757,2.4419
3.2878,729,2.3516
3.2920,381,1.2290
3.2961,248,0.8000
3.3003,535,1.7258
3.3044,797,2.5710
3.3086,684,2.2065
3.3128,332,1.0710
3.3170,276,0.8903
3.3212,624,2.0129
3.3254,798,2.5742
3.3296,584,1.8839
3.3339,265,0.8548
3.3381,323,1.0419
3.3424,708,2.2839
3.3466,773,2.4935
3.3508,468,1.5097
3.3551,235,0.7581
3.3593,429,1.3839
3.3636,767,2.4742
3.3678,728,2.3484
3.3720,371,1.1968
3.3763,245,0.7903
3.3805,552,1.7806
3.3848,796,2.5677
3.3890,643,2.0742
3.3932,291,0.9387
3.3975,287,0.9258
3.4017,668,2.1548
3.4059,792,2.5548
3.4102,538,1.7355
3.4144,252,0.8129
3.4187,377,1.2161
3.4230,743,2.3968
3.4273,750,2.4194
3.4316,405,1.3065
3.4360,245,0.7903
3.4404,547,1.7645
3.4448,790,2.5484
3.4490,639,2.0613
3.4533,287,0.9258
3.4577,301,0.9710
3.4620,686,2.2129
3.4663,781,2.5194
3.4706,497,1.6032
3.4749,244,0.7871
3.4791,412,1.3290
3.4835,755,2.4355
3.4878,720,2.3226
3.4921,360,1.1613
3.4964,245,0.7903
3.5007,567,1.8290
3.5050,787,2.5387
3.5093,612,1.9742
3.5136,278,0.8968
3.5179,312,1.0065
3.5222,700,2.2581
3.5265,789,2.5452
3.5308,492,1.5871
3.5351,251,0.8097
3.5396,468,1.5097
3.5439,786,2.5355
3.5482,715,2.3065
3.5525,343,1.1065
3.5570,266,0.8581
3.5621,684,2.2065
3.5665,772,2.4903
3.5709,459,1.4806
3.5752,229,0.7387
3.5796,457,1.4742
3.5840,768,2.4774
3.5884,678,2.1871
3.5927,306,0.9871
3.5971,262,0.8452
3.6015,640,2.0645
3.6059,766,2.4710
3.6109,425,1.3710
3.6153,206,0.6645
3.6197,446,1.4387
3.6240,765,2.4677
3.6284,673,2.1710
3.6327,310,1.0000
3.6370,246,0.7935
3.6413,605,1.9516
3.6457,763,2.4613
3.6500,540,1.7419
3.6544,295,0.9516
3.6587,489,1.5774
3.6629,927,2.9903
3.6672,991,3.1968
3.6716,674,2.1742
3.6759,406,1.3097
3.6802,570,1.8387
3.6846,795,2.5645
3.6889,641,2.0677
3.6933,280,0.9032
3.6982,329,1.0613
3.7026,715,2.3065
3.7069,752,2.4258
3.7111,423,1.3645
3.7154,218,0.7032
3.7197,451,1.4548
3.7240,765,2.4677
3.7283,679,2.1903
3.7326,307,0.9903
3.7369,244,0.7871
3.7412,602,1.9419
3.7455,775,2.5000
3.7499,536,1.7290
3.7542,228,0.7355
3.7585,330,1.0645
3.7628,717,2.3129
3.7672,724,2.3355
3.7719,336,1.0839
3.7763,211,0.6806
3.7807,542,1.7484
3.7850,769,2.4806
3.7894,576,1.8581
3.7938,240,0.7742
3.7980,289,0.9323
3.8023,679,2.1903
3.8066,755,2.4355
3.8108,453,1.4613
3.8151,216,0.6968
3.8194,407,1.3129
3.8236,744,2.4000
3.8279,695,2.2419
3.8322,332,1.0710
3.8364,217,0.7000
3.8408,544,1.7548
3.8450,767,2.4742
3.8493,589,1.9000
3.8536,245,0.7903
3.8578,263,0.8484
3.8621,640,2.0645
3.8663,736,2.3742
3.8706,452,1.4581
3.8748,193,0.6226
3.8791,354,1.1419
3.8834,711,2.2935
3.8876,691,2.2290
3.8919,334,1.0774
3.8962,196,0.6323
3.9004,492,1.5871
3.9047,750,2.4194
3.9089,609,1.9645
3.9132,255,0.8226
3.9175,248,0.8000
3.9217,627,2.0226
3.9260,765,2.4677
3.9304,510,1.6452
3.9346,243,0.7839
3.9389,395,1.2742
3.9433,763,2.4613
3.9476,755,2.4355
3.9519,399,1.2871
3.9562,266,0.8581
3.9605,571,1.8419
3.9648,815,2.6290
3.9691,661,2.1323
3.9734,311,1.0032
3.9777,316,1.0194
3.9819,695,2.2419
3.9862,805,2.5968
3.9905,529,1.7065
3.9948,266,0.8581
3.9991,426,1.3742
4.0034,780,2.5161
4.0076,760,2.4516
4.0119,400,1.2903
4.0162,261,0.8419
4.0205,561,1.8097
4.0248,810,2.6129
4.0290,659,2.1258
4.0334,305,0.9839
4.0377,318,1.0258
4.0421,704,2.2710
4.0464,802,2.5871
4.0506,516,1.6645
4.0550,263,0.8484
4.0592,438,1.4129
4.0635,787,2.5387
4.0678,747,2.4097
4.0735,294,0.9484
4.0780,334,1.0774
4.0824,728,2.3484
4.0867,787,2.5387
4.0910,467,1.5065
4.0953,244,0.7871
4.0996,462,1.4903
4.1038,794,2.5613
4.1082,723,2.3323
4.1125,356,1.1484
4.1167,266,0.8581
4.1210,610,1.9677
4.1253,808,2.6065
4.1295,604,1.9484
4.1338,271,0.8742
4.1381,324,1.0452
4.1424,711,2.2935
4.1466,781,2.5194
4.1509,474,1.5290
4.1551,240,0.7742
4.1594,432,1.3935
4.1637,778,2.5097
4.1679,729,2.3516
4.1722,361,1.1645
4.1765,254,0.8194
4.1808,585,1.8871
4.1851,811,2.6161
4.1894,627,2.0226
4.1937,285,0.9194
4.1980,329,1.0613
4.2023,722,2.3290
4.2066,802,2.5871
4.2109,491,1.5839
4.2152,244,0.7871
4.2195,444,1.4323
4.2237,785,2.5323
4.2280,740,2.3871
4.2323,364,1.1742
4.2366,245,0.7903
4.2409,575,1.8548
4.2453,786,2.5355
4.2498,575,1.8548
4.2541,255,0.8226
4.2585,345,1.1129
4.2628,732,2.3613
4.2671,757,2.4419
4.2714,418,1.3484
4.2758,232,0.7484
4.2801,496,1.6000
4.2844,782,2.5226
4.2887,660,2.1290
4.2931,297,0.9581
4.2974,271,0.8742
4.3017,645,2.0806
4.3061,777,2.5065
4.3104,510,1.6452
4.3147,228,0.7355
4.3191,372,1.2000
4.3234,734,2.3677
4.3277,725,2.3387
4.3321,399,1.2871
4.3364,337,1.0871
4.3407,718,2.3161
4.3450,999,3.2226
4.3493,893,2.8806
4.3536,489,1.5774
4.3579,393,1.2677
4.3622,707,2.2806
4.3665,779,2.5129
4.3708,480,1.5484
4.3751,230,0.7419
4.3794,407,1.3129
4.3837,747,2.4097
4.3879,707,2.2806
4.3922,347,1.1194
4.3965,230,0.7419
4.4008,555,1.7903
4.4051,779,2.5129
4.4094,603,1.9452
4.4137,262,0.8452
4.4180,291,0.9387
4.4223,673,2.1710
4.4266,754,2.4323
4.4309,457,1.4742
4.4352,218,0.7032
4.4395,409,1.3194
4.4438,747,2.4097
4.4481,690,2.2258
4.4525,323,1.0419
4.4568,227,0.7323
4.4611,572,1.8452
4.4655,768,2.4774
4.4698,558,1.8000
4.4741,236,0.7613
4.4784,310,1.0000
4.4828,688,2.2194
4.4871,719,2.3194
4.4914,384,1.2387
4.4958,196,0.6323
4.5001,463,1.4935
4.5044,756,2.4387
4.5087,642,2.0710
4.5131,273,0.8806
4.5174,235,0.7581
4.5217,610,1.9677
4.5260,742,2.3935
4.5304,476,1.5355
4.5347,193,0.6226
4.5391,350,1.1290
4.5435,708,2.2839
4.5478,672,2.1677
4.5521,304,0.9806
4.5564,174,0.5613
4.5607,495,1.5968
4.5650,733,2.3645
4.5693,562,1.8129
4.5736,215,0.6935
4.5779,235,0.7581
4.5822,630,2.0323
4.5865,722,2.3290
4.5907,430,1.3871
4.5950,185,0.5968
4.5993,370,1.1935
4.6036,722,2.3290
4.6079,690,2.2258
4.6122,340,1.0968
4.6165,228,0.7355
4.6208,552,1.7806
4.6251,790,2.5484
4.6294,624,2.0129
4.6337,283,0.9129
4.6380,309,0.9968
4.6423,702,2.2645
4.6466,789,2.5452
4.6510,485,1.5645
4.6553,247,0.7968
4.6596,451,1.4548
4.6640,786,2.5355
4.6683,728,2.3484
4.6726,353,1.1387
4.6771,275,0.8871
4.6816,647,2.0871
4.6860,810,2.6129
4.6903,573,1.8484
4.6946,266,0.8581
4.6990,392,1.2645
4.7034,758,2.4452
4.7077,757,2.4419
4.7120,403,1.3000
4.7164,255,0.8226
4.7207,557,1.7968
4.7250,806,2.6000
4.7294,654,2.1097
4.7337,304,0.9806
4.7380,318,1.0258
4.7423,706,2.2774
4.7467,800,2.5806
4.7510,503,1.6226
4.7553,257,0.8290
4.7596,444,1.4323
4.7639,781,2.5194
4.7682,734,2.3677
4.7725,373,1.2032
4.7768,260,0.8387
4.7810,587,1.8935
4.7853,805,2.5968
4.7896,626,2.0194
4.7939,290,0.9355
4.7982,323,1.0419
4.8025,705,2.2742
4.8068,790,2.5484
4.8111,494,1.5935
4.8154,248,0.8000
4.8197,435,1.4032
4.8240,770,2.4839
4.8283,734,2.3677
4.8326,376,1.2129
4.8368,258,0.8323
4.8412,584,1.8839
4.8455,800,2.5806
4.8499,606,1.9548
4.8542,282,0.9097
4.8585,336,1.0839
4.8628,709,2.2871
4.8671,768,2.4774
4.8714,456,1.4710
4.8757,240,0.7742
4.8800,463,1.4935
4.8843,784,2.5290
4.8886,712,2.2968
4.8929,342,1.1032
4.8972,258,0.8323
4.9015,613,1.9774
4.9057,816,2.6323
4.9101,603,1.9452
4.9143,270,0.8710
4.9186,327,1.0548
4.9229,710,2.2903
4.9272,771,2.4871
4.9315,448,1.4452
4.9358,234,0.7548
4.9401,464,1.4968
4.9444,779,2.5129
4.9487,697,2.2484
4.9531,328,1.0581
4.9574,260,0.8387
4.9617,624,2.0129
4.9660,793,2.5581
4.9704,548,1.7677
4.9760,237,0.7645
4.9805,505,1.6290
4.9848,784,2.5290
4.9891,660,2.1290
4.9935,284,0.9161
4.9978,253,0.8161
5.0021,630,2.0323
5.0064,787,2.5387
5.0109,552,1.7806
5.0154,372,1.2000
5.0199,659,2.1258
5.0250,1002,3.2323
5.0299,854,2.7548
5.0345,428,1.3806
5.0389,433,1.3968
5.0432,764,2.4645
5.0476,770,2.4839
5.0518,418,1.3484
5.0561,217,0.7000
5.0603,464,1.4968
5.0645,761,2.4548
5.0688,671,2.1645
5.0730,307,0.9903
5.0773,228,0.7355
5.0815,580,1.8710
5.0858,767,2.4742
5.0900,562,1.8129
5.0943,237,0.7645
5.0985,292,0.9419
5.1028,672,2.1677
5.1070,741,2.3903
5.1113,437,1.4097
5.1155,202,0.6516
5.1198,397,1.2806
5.1240,733,2.3645
5.1282,697,2.2484
5.1325,343,1.1065
5.1367,209,0.6742
5.1410,516,1.6645
5.1452,767,2.4742
5.1495,619,1.9968
5.1538,262,0.8452
5.1581,259,0.8355
5.1623,640,2.0645
5.1666,758,2.4452
5.1709,476,1.5355
5.1753,211,0.6806
5.1795,372,1.2000
5.1838,719,2.3194
5.1881,693,2.2355
5.1924,331,1.0677
5.1968,195,0.6290
5.2011,514,1.6581
5.2054,745,2.4032
5.2097,570,1.8387
5.2140,223,0.7194
5.2183,245,0.7903
5.2226,630,2.0323
5.2269,722,2.3290
5.2312,421,1.3581
5.2355,175,0.5645
5.2401,391,1.2613
5.2444,711,2.2935
5.2487,636,2.0516
5.2530,272,0.8774
5.2573,190,0.6129
5.2616,542,1.7484
5.2659,731,2.3581
5.2702,522,1.6839
5.2745,213,0.6871
5.2788,294,0.9484
5.2831,678,2.1871
5.2874,738,2.3806
5.2916,423,1.3645
5.2959,221,0.7129
5.3003,469,1.5129
5.3046,776,2.5032
5.3088,697,2.2484
5.3131,334,1.0774
5.3174,266,0.8581
5.3217,624,2.0129
5.3260,805,2.5968
5.3303,584,1.8839
5.3345,271,0.8742
5.3388,352,1.1355
5.3432,735,2.3710
5.3475,777,2.5065
5.3518,440,1.4194
5.3561,244,0.7871
5.3604,499,1.6097
5.3647,792,2.5548
5.3689,691,2.2290
5.3732,326,1.0516
5.3775,267,0.8613
5.3818,629,2.0290
5.3861,793,2.5581
5.3904,565,1.8226
5.3947,259,0.8355
5.3990,358,1.1548
5.4032,735,2.3710
5.4076,773,2.4935
5.4119,434,1.4000
5.4162,248,0.8000
5.4205,511,1.6484
5.4248,800,2.5806
5.4291,687,2.2161
5.4334,320,1.0323
5.4377,274,0.8839
5.4420,648,2.0903
5.4463,804,2.5935
5.4506,550,1.7742
5.4549,255,0.8226
5.4592,375,1.2097
5.4635,746,2.4065
5.4678,761,2.4548
5.4721,412,1.3290
5.4764,238,0.7677
5.4806,514,1.6581
5.4850,789,2.5452
5.4892,666,2.1484
5.4935,303,0.9774
5.4978,274,0.8839
5.5021,650,2.0968
5.5065,788,2.5419
5.5107,532,1.7161
5.5150,245,0.7903
5.5193,376,1.2129
5.5236,741,2.3903
5.5279,750,2.4194
5.5321,406,1.3097
5.5364,249,0.8032
5.5407,545,1.7581
5.5450,818,2.6387
5.5493,686,2.2129
5.5536,325,1.0484
5.5579,298,0.9613
5.5628,723,2.3323
5.5672,791,2.5516
5.5716,466,1.5032
5.5760,242,0.7806
5.5805,499,1.6097
5.5849,781,2.5194
5.5891,661,2.1323
5.5934,296,0.9548
5.5981,272,0.8774
5.6024,659,2.1258
5.6068,770,2.4839
5.6110,486,1.5677
5.6154,225,0.7258
5.6196,392,1.2645
5.6239,744,2.4000
5.6282,716,2.3097
5.6326,352,1.1355
5.6369,223,0.7194
5.6412,552,1.7806
5.6456,775,2.5000
5.6498,588,1.8968
5.6541,250,0.8065
5.6584,291,0.9387
5.6627,709,2.2871
5.6669,859,2.7710
5.6712,630,2.0323
5.6754,440,1.4194
5.6797,668,2.1548
5.6839,975,3.1452
5.6882,848,2.7355
5.6925,401,1.2935
5.6967,232,0.7484
5.7009,531,1.7129
5.7052,780,2.5161
5.7095,630,2.0323
5.7137,269,0.8677
5.7180,247,0.7968
5.7222,622,2.0065
5.7265,761,2.4548
5.7308,505,1.6290
5.7350,216,0.6968
5.7392,340,1.0968
5.7435,712,2.2968
5.7479,725,2.3387
5.7521,375,1.2097
5.7564,199,0.6419
5.7607,477,1.5387
5.7650,751,2.4226
5.7693,625,2.0161
5.7735,261,0.8419
5.7778,231,0.7452
5.7821,608,1.9613
5.7864,760,2.4516
5.7908,496,1.6000
5.7951,202,0.6516
5.7994,349,1.1258
5.8038,715,2.3065
5.8081,701,2.2613
5.8125,339,1.0935
5.8168,199,0.6419
5.8211,516,1.6645
5.8254,758,2.4452
5.8298,589,1.9000
5.8341,238,0.7677
5.8384,264,0.8516
5.8428,657,2.1194
5.8471,743,2.3968
5.8515,426,1.3742
5.8558,189,0.6097
5.8601,399,1.2871
5.8644,726,2.3419
5.8687,657,2.1194
5.8731,277,0.8935
5.8776,204,0.6581
5.8820,585,1.8871
5.8863,742,2.3935
5.8906,494,1.5935
5.8949,190,0.6129
5.8992,303,0.9774
5.9035,674,2.1742
5.9078,688,2.2194
5.9122,333,1.0742
5.9165,169,0.5452
5.9208,463,1.4935
5.9251,743,2.3968
5.9294,620,2.0000
5.9337,263,0.8484
5.9380,242,0.7806
5.9423,633,2.0419
5.9466,776,2.5032
5.9508,514,1.6581
5.9552,234,0.7548
5.9595,384,1.2387
5.9638,754,2.4323
5.9681,755,2.4355
5.9724,393,1.2677
5.9767,240,0.7742
5.9810,542,1.7484
5.9853,795,2.5645
5.9896,649,2.0935
5.9939,294,0.9484
5.9982,289,0.9323
6.0025,673,2.1710
6.0068,795,2.5645
6.0111,519,1.6742
6.0154,248,0.8000
6.0196,411,1.3258
6.0239,767,2.4742
6.0282,749,2.4161
6.0325,386,1.2452
6.0368,245,0.7903
6.0411,558,1.8000
6.0454,801,2.5839
6.0497,638,2.0581
6.0541,286,0.9226
6.0584,301,0.9710
6.0627,691,2.2290
6.0670,793,2.5581
6.0713,501,1.6161
6.0756,246,0.7935
6.0799,430,1.3871
6.0842,771,2.4871
6.0884,729,2.3516
6.0927,363,1.1710
6.0970,243,0.7839
6.1014,573,1.8484
6.1057,792,2.5548
6.1100,607,1.9581
6.1143,268,0.8645
6.1186,305,0.9839
6.1229,700,2.2581
6.1272,783,2.5258
6.1314,471,1.5194
6.1359,231,0.7452
6.1403,459,1.4806
6.1446,775,2.5000
6.1488,701,2.2613
6.1531,329,1.0613
6.1575,247,0.7968
6.1618,602,1.9419
6.1661,789,2.5452
6.1704,569,1.8355
6.1747,249,0.8032
6.1790,338,1.0903
6.1833,737,2.3774
6.1876,801,2.5839
6.1918,476,1.5355
6.1961,265,0.8548
6.2004,501,1.6161
6.2046,809,2.6097
6.2089,730,2.3548
6.2132,349,1.1258
6.2176,267,0.8613
6.2218,623,2.0097
6.2261,806,2.6000
6.2303,583,1.8806
6.2346,252,0.8129
6.2389,319,1.0290
6.2431,701,2.2613
6.2474,762,2.4581
6.2517,435,1.4032
6.2560,218,0.7032
6.2604,461,1.4871
6.2647,768,2.4774
6.2690,682,2.2000
6.2733,311,1.0032
6.2776,238,0.7677
6.2819,598,1.9290
6.2862,776,2.5032
6.2904,551,1.7774
6.2950,224,0.7226
6.2993,334,1.0774
6.3036,713,2.3000
6.3080,742,2.3935
6.3122,426,1.3742
6.3165,307,0.9903
6.3208,654,2.1097
6.3251,986,3.1806
6.3294,926,2.9871
6.3337,534,1.7226
6.3380,378,1.2194
6.3423,664,2.1419
6.3466,781,2.5194
6.3508,523,1.6871
6.3551,232,0.7484
6.3594,350,1.1290
6.3636,714,2.3032
6.3679,731,2.3581
6.3721,388,1.2516
6.3764,202,0.6516
6.3806,464,1.4968
6.3849,755,2.4355
6.3891,656,2.1161
6.3934,288,0.9290
6.3976,224,0.7226
6.4019,585,1.8871
6.4062,767,2.4742
6.4104,548,1.7677
6.4146,229,0.7387
6.4189,297,0.9581
6.4232,684,2.2065
6.4275,749,2.4161
6.4317,427,1.3774
6.4360,205,0.6613
6.4403,430,1.3871
6.4445,749,2.4161
6.4488,683,2.2032
6.4530,316,1.0194
6.4573,216,0.6968
6.4616,562,1.8129
6.4659,769,2.4806
6.4702,566,1.8258
6.4764,199,0.6419
6.4809,490,1.5806
6.4853,761,2.4548
6.4896,611,1.9710
6.4940,250,0.8065
6.4983,245,0.7903
6.5026,636,2.0516
6.5070,741,2.3903
6.5114,436,1.4065
6.5157,184,0.5935
6.5204,415,1.3387
6.5247,728,2.3484
6.5291,638,2.0581
6.5334,266,0.8581
6.5377,205,0.6613
6.5421,579,1.8677
6.5465,743,2.3968
6.5508,489,1.5774
6.5559,176,0.5677
6.5603,403,1.3000
6.5646,731,2.3581
6.5689,655,2.1129
6.5732,285,0.9194
6.5776,205,0.6613
6.5821,593,1.9129
6.5864,768,2.4774
6.5907,531,1.7129
6.5950,231,0.7452
6.5993,347,1.1194
6.6036,733,2.3645
6.6079,759,2.4484
6.6122,411,1.3258
6.6165,235,0.7581
6.6208,518,1.6710
6.6251,803,2.5903
6.6295,666,2.1484
6.6339,301,0.9710
6.6381,280,0.9032
6.6424,663,2.1387
6.6468,796,2.5677
6.6511,519,1.6742
6.6554,244,0.7871
6.6597,408,1.3161
6.6645,778,2.5097
6.6688,716,2.3097
6.6731,344,1.1097
6.6774,248,0.8000
6.6817,595,1.9194
6.6860,802,2.5871
6.6903,595,1.9194
6.6946,266,0.8581
6.6989,331,1.0677
6.7032,722,2.3290
6.7075,782,2.5226
6.7119,446,1.4387
6.7162,238,0.7677
6.7205,484,1.5613
6.7248,794,2.5613
6.7291,702,2.2645
6.7334,325,1.0484
6.7377,260,0.8387
6.7420,634,2.0452
6.7467,804,2.5935
6.7510,535,1.7258
6.7553,247,0.7968
6.7596,395,1.2742
6.7639,762,2.4581
6.7682,750,2.4194
6.7726,375,1.2097
6.7771,238,0.7677
6.7815,574,1.8516
6.7858,799,2.5774
6.7901,614,1.9806
6.7944,270,0.8710
6.7987,306,0.9871
6.8030,702,2.2645
6.8073,785,2.5323
6.8116,471,1.5194
6.8159,233,0.7516
6.8202,446,1.4387
6.8245,777,2.5065
6.8288,717,2.3129
6.8331,346,1.1161
6.8374,244,0.7871
6.8417,590,1.9032
6.8460,798,2.5742
6.8503,598,1.9290
6.8546,261,0.8419
6.8589,321,1.0355
6.8632,718,2.3161
6.8675,796,2.5677
6.8718,482,1.5548
6.8761,269,0.8677
6.8804,498,1.6065
6.8847,811,2.6161
6.8889,733,2.3645
6.8932,355,1.1452
6.8976,269,0.8677
6.9019,619,1.9968
6.9062,802,2.5871
6.9105,571,1.8419
6.9148,248,0.8000
6.9191,339,1.0935
6.9234,722,2.3290
6.9277,761,2.4548
6.9320,420,1.3548
6.9364,217,0.7000
6.9407,475,1.5323
6.9450,772,2.4903
6.9492,667,2.1516
6.9535,297,0.9581
6.9578,245,0.7903
6.9621,619,1.9968
6.9665,779,2.5129
6.9708,526,1.6968
6.9753,223,0.7194
6.9797,363,1.1710
6.9840,718,2.3161
6.9883,713,2.3000
6.9926,374,1.2065
6.9970,280,0.9032
7.0013,667,2.1516
7.0056,966,3.1161
7.0100,874,2.8194
7.0143,532,1.7161
7.0186,464,1.4968
7.0230,742,2.3935
7.0273,779,2.5129
7.0316,464,1.4968
7.0359,227,0.7323
7.0403,444,1.4323
7.0446,759,2.4484
7.0490,680,2.1935
7.0533,300,0.9677
7.0577,223,0.7194
7.0620,593,1.9129
7.0663,767,2.4742
7.0706,536,1.7290
7.0749,222,0.7161
7.0792,312,1.0065
7.0835,699,2.2548
7.0878,736,2.3742
7.0921,396,1.2774
7.0964,197,0.6355
7.1007,456,1.4710
7.1050,756,2.4387
7.1092,655,2.1129
7.1135,285,0.9194
7.1178,225,0.7258
7.1221,598,1.9290
7.1264,767,2.4742
7.1307,527,1.7000
7.1350,218,0.7032
7.1393,323,1.0419
7.1436,708,2.2839
7.1479,733,2.3645
7.1522,384,1.2387
7.1565,196,0.6323
7.1609,476,1.5355
7.1652,756,2.4387
7.1696,625,2.0161
7.1739,257,0.8290
7.1782,240,0.7742
7.1826,633,2.0419
7.1869,760,2.4516
7.1912,473,1.5258
7.1956,197,0.6355
7.1999,363,1.1710
7.2042,712,2.2968
7.2086,677,2.1839
7.2129,303,0.9774
7.2172,184,0.5935
7.2215,520,1.6774
7.2259,741,2.3903
7.2302,549,1.7710
7.2345,210,0.6774
7.2389,264,0.8516
7.2432,663,2.1387
7.2476,726,2.3419
7.2520,394,1.2710
7.2563,185,0.5968
7.2606,440,1.4194
7.2650,751,2.4226
7.2693,653,2.1065
7.2736,289,0.9323
7.2779,240,0.7742
7.2821,619,1.9968
7.2865,793,2.5581
7.2907,559,1.8032
7.2950,253,0.8161
7.2993,359,1.1581
7.3036,743,2.3968
7.3079,775,2.5000
7.3122,429,1.3839
7.3165,237,0.7645
7.3208,505,1.6290
7.3251,798,2.5742
7.3294,691,2.2290
7.3337,320,1.0323
7.3380,271,0.8742
7.3423,643,2.0742
7.3466,800,2.5806
7.3509,550,1.7742
7.3552,252,0.8129
7.3594,370,1.1935
7.3637,748,2.4129
7.3681,766,2.4710
7.3724,403,1.3000
7.3769,239,0.7710
7.3814,571,1.8419
7.3858,813,2.6226
7.3901,635,2.0484
7.3944,284,0.9161
7.3988,322,1.0387
7.4032,725,2.3387
7.4076,789,2.5452
7.4120,454,1.4645
7.4163,237,0.7645
7.4206,486,1.5677
7.4250,793,2.5581
7.4297,658,2.1226
7.4341,293,0.9452
7.4384,292,0.9419
7.4428,687,2.2161
7.4471,804,2.5935
7.4515,503,1.6226
7.4558,242,0.7806
7.4601,430,1.3871
7.4644,778,2.5097
7.4688,730,2.3548
7.4731,357,1.1516
7.4774,243,0.7839
7.4817,588,1.8968
7.4859,805,2.5968
7.4902,609,1.9645
7.4945,263,0.8484
7.4988,307,0.9903
7.5031,703,2.2677
7.5074,785,2.5323
7.5117,468,1.5097
7.5160,230,0.7419
7.5203,441,1.4226
7.5246,773,2.4935
7.5289,715,2.3065
7.5332,339,1.0935
7.5375,237,0.7645
7.5418,590,1.9032
7.5461,797,2.5710
7.5504,593,1.9129
7.5547,255,0.8226
7.5590,315,1.0161
7.5633,707,2.2806
7.5676,779,2.5129
7.5719,450,1.4516
7.5763,236,0.7613
7.5806,487,1.5710
7.5849,798,2.5742
7.5893,703,2.2677
7.5936,323,1.0419
7.5979,269,0.8677
7.6023,646,2.0839
7.6066,802,2.5871
7.6109,541,1.7452
7.6153,235,0.7581
7.6196,362,1.1677
7.6239,735,2.3710
7.6282,731,2.3581
7.6326,368,1.1871
7.6369,210,0.6774
7.6413,518,1.6710
7.6456,777,2.5065
7.6499,621,2.0032
7.6542,264,0.8516
7.6586,272,0.8774
7.6629,668,2.1548
7.6672,768,2.4774
7.6716,458,1.4774
7.6760,212,0.6839
7.6805,448,1.4452
7.6848,768,2.4774
7.6891,675,2.1774
7.6934,291,0.9387
7.6977,223,0.7194
7.7020,613,1.9774
7.7063,851,2.7452
7.7106,696,2.2452
7.7149,431,1.3903
7.7192,589,1.9000
7.7235,986,3.1806
7.7278,938,3.0258
7.7321,496,1.6000
7.7364,229,0.7387
7.7407,470,1.5161
7.7450,771,2.4871
7.7493,674,2.1742
7.7536,296,0.9548
7.7579,228,0.7355
7.7622,599,1.9323
7.7665,772,2.4903
7.7708,527,1.7000
7.7751,211,0.6806
7.7794,314,1.0129
7.7837,705,2.2742
7.7880,734,2.3677
7.7923,380,1.2258
7.7966,185,0.5968
7.8009,459,1.4806
7.8052,754,2.4323
7.8095,642,2.0710
7.8137,269,0.8677
7.8180,221,0.7129
7.8223,602,1.9419
7.8266,759,2.4484
7.8309,508,1.6387
7.8352,203,0.6548
7.8396,332,1.0710
7.8440,709,2.2871
7.8483,711,2.2935
7.8526,353,1.1387
7.8568,183,0.5903
7.8612,475,1.5323
7.8654,747,2.4097
7.8697,610,1.9677
7.8741,245,0.7903
7.8784,233,0.7516
7.8828,634,2.0452
7.8871,756,2.4387
7.8914,461,1.4871
7.8957,191,0.6161
7.9001,372,1.2000
7.9044,725,2.3387
7.9087,686,2.2129
7.9131,308,0.9935
7.9174,189,0.6097
7.9217,532,1.7161
7.9261,753,2.4290
7.9304,553,1.7839
7.9347,210,0.6774
7.9390,267,0.8613
7.9434,664,2.1419
7.9478,721,2.3258
7.9521,385,1.2419
7.9564,174,0.5613
7.9607,427,1.3774
7.9651,741,2.3903
7.9694,646,2.0839
7.9737,274,0.8839
7.9780,228,0.7355
7.9823,610,1.9677
7.9866,786,2.5355
7.9909,548,1.7677
7.9952,241,0.7774
7.9995,354,1.1419
8.0038,740,2.3871
8.0081,770,2.4839
8.0124,423,1.3645
8.0167,236,0.7613
8.0209,508,1.6387
8.0253,798,2.5742
8.0296,688,2.2194
8.0339,318,1.0258
8.0381,277,0.8935
8.0424,657,2.1194
8.0468,810,2.6129
8.0510,556,1.7935
8.0553,254,0.8194
8.0596,374,1.2065
8.0639,747,2.4097
8.0682,759,2.4484
8.0725,407,1.3129
8.0769,236,0.7613
8.0812,532,1.7161
8.0855,804,2.5935
8.0899,662,2.1355
8.0942,302,0.9742
8.0985,296,0.9548
8.1028,686,2.2129
8.1072,801,2.5839
8.1115,510,1.6452
8.1158,248,0.8000
8.1201,433,1.3968
8.1245,784,2.5290
8.1288,739,2.3839
8.1332,361,1.1645
8.1375,250,0.8065
8.1419,601,1.9387
8.1462,811,2.6161
8.1505,598,1.9290
8.1549,263,0.8484
8.1592,335,1.0806
8.1635,729,2.3516
8.1678,783,2.5258
8.1722,438,1.4129
8.1765,229,0.7387
8.1808,487,1.5710
8.1851,793,2.5581
8.1894,693,2.2355
8.1937,315,1.0161
8.1980,251,0.8097
8.2023,619,1.9968
8.2066,795,2.5645
8.2109,561,1.8097
8.2152,249,0.8032
8.2195,349,1.1258
8.2237,732,2.3613
8.2280,767,2.4742
8.2323,426,1.3742
8.2366,243,0.7839
8.2409,518,1.6710
8.2452,820,2.6452
8.2495,713,2.3000
8.2538,338,1.0903
8.2581,289,0.9323
8.2624,664,2.1419
8.2667,826,2.6645
8.2713,536,1.7290
8.2758,246,0.7935
8.2803,428,1.3806
8.2847,771,2.4871
8.2890,712,2.2968
8.2934,331,1.0677
8.2977,238,0.7677
8.3021,591,1.9065
8.3064,776,2.5032
8.3108,548,1.7677
8.3151,234,0.7548
8.3194,333,1.0742
8.3238,719,2.3194
8.3281,754,2.4323
8.3324,401,1.2935
8.3368,216,0.6968
8.3411,493,1.5903
8.3454,769,2.4806
8.3498,630,2.0323
8.3541,254,0.8194
8.3584,248,0.8000
8.3628,661,2.1323
8.3671,835,2.6935
8.3714,616,1.9871
8.3758,405,1.3065
8.3801,654,2.1097
8.3844,1000,3.2258
8.3887,932,3.0065
8.3929,469,1.5129
8.3973,255,0.8226
8.4015,550,1.7742
8.4058,794,2.5613
8.4101,630,2.0323
8.4144,267,0.8613
8.4187,267,0.8613
8.4230,652,2.1032
8.4273,762,2.4581
8.4316,468,1.5097
8.4359,200,0.6452
8.4402,384,1.2387
8.4445,739,2.3839
8.4488,712,2.2968
8.4531,342,1.1032
8.4574,213,0.6871
8.4617,541,1.7452
8.4660,775,2.5000
8.4703,601,1.9387
8.4746,248,0.8000
8.4789,275,0.8871
8.4832,672,2.1677
8.4876,758,2.4452
8.4919,444,1.4323
8.4963,207,0.6677
8.5006,427,1.3774
8.5049,753,2.4290
8.5093,679,2.1903
8.5136,305,0.9839
8.5179,226,0.7290
8.5222,591,1.9065
8.5266,775,2.5000
8.5309,543,1.7516
8.5352,228,0.7355
8.5396,324,1.0452
8.5439,708,2.2839
8.5482,734,2.3677
8.5526,381,1.2290
8.5569,196,0.6323
8.5612,479,1.5452
8.5656,755,2.4355
8.5699,620,2.0000
8.5742,248,0.8000
8.5787,252,0.8129
8.5832,654,2.1097
8.5875,748,2.4129
8.5918,440,1.4194
8.5961,191,0.6161
8.6004,390,1.2581
8.6047,735,2.3710
8.6090,684,2.2065
8.6134,308,0.9935
8.6180,214,0.6903
8.6224,586,1.8903
8.6267,764,2.4645
8.6310,534,1.7226
8.6353,228,0.7355
8.6396,337,1.0871
8.6439,729,2.3516
8.6482,758,2.4452
8.6525,412,1.3290
8.6568,229,0.7387
8.6611,508,1.6387
8.6654,800,2.5806
8.6697,683,2.2032
8.6741,313,1.0097
8.6784,277,0.8935
8.6827,664,2.1419
8.6870,804,2.5935
8.6913,536,1.7290
8.6956,248,0.8000
8.6999,390,1.2581
8.7042,762,2.4581
8.7085,765,2.4677
8.7128,402,1.2968
8.7171,238,0.7677
8.7214,536,1.7290
8.7257,800,2.5806
8.7300,658,2.1226
8.7344,299,0.9645
8.7386,292,0.9419
8.7430,679,2.1903
8.7473,797,2.5710
8.7516,508,1.6387
8.7559,240,0.7742
8.7602,413,1.3323
8.7645,772,2.4903
8.7688,743,2.3968
8.7731,372,1.2000
8.7774,242,0.7806
8.7817,572,1.8452
8.7861,805,2.5968
8.7904,627,2.0226
8.7946,280,0.9032
8.7989,304,0.9806
8.8032,700,2.2581
8.8076,792,2.5548
8.8119,479,1.5452
8.8162,228,0.7355
8.8205,431,1.3903
8.8248,774,2.4968
8.8291,720,2.3226
8.8334,342,1.1032
8.8377,237,0.7645
8.8421,596,1.9226
8.8464,795,2.5645
8.8507,589,1.9000
8.8549,255,0.8226
8.8592,309,0.9968
8.8635,704,2.2710
8.8677,778,2.5097
8.8720,461,1.4871
8.8763,222,0.7161
8.8805,431,1.3903
8.8848,763,2.4613
8.8891,709,2.2871
8.8934,336,1.0839
8.8976,231,0.7452
8.9019,579,1.8677
8.9062,816,2.6323
8.9104,645,2.0806
8.9147,306,0.9871
8.9190,334,1.0774
8.9232,729,2.3516
8.9275,825,2.6613
8.9318,534,1.7226
8.9361,298,0.9613
8.9405,483,1.5581
8.9448,760,2.4516
8.9491,678,2.1871
8.9534,334,1.0774
8.9576,252,0.8129
8.9619,570,1.8387
8.9662,751,2.4226
8.9704,572,1.8452
8.9747,271,0.8742
8.9790,319,1.0290
8.9832,681,2.1968
8.9875,738,2.3806
8.9918,447,1.4419
8.9961,238,0.7677
9.0004,436,1.4065
9.0047,741,2.3903
9.0090,674,2.1742
9.0133,328,1.0581
9.0177,238,0.7677
9.0219,553,1.7839
9.0263,739,2.3839
9.0305,577,1.8613
9.0348,328,1.0581
9.0391,446,1.4387
9.0435,876,2.8258
9.0478,996,3.2129
9.0521,721,2.3258
9.0564,403,1.3000
9.0606,507,1.6355
9.0650,779,2.5129
9.0693,698,2.2516
9.0736,323,1.0419
9.0779,227,0.7323
9.0822,578,1.8645
9.0864,776,2.5032
9.0907,568,1.8323
9.0950,258,0.8323
9.0992,316,1.0194
9.1035,671,2.1645
9.1078,712,2.2968
9.1121,409,1.3194
9.1164,217,0.7000
9.1206,429,1.3839
9.1249,731,2.3581
9.1292,660,2.1290
9.1334,294,0.9484
9.1377,193,0.6226
9.1420,540,1.7419
9.1462,761,2.4548
9.1505,569,1.8355
9.1548,224,0.7226
9.1590,259,0.8355
9.1633,656,2.1161
9.1676,751,2.4226
9.1719,433,1.3968
9.1763,187,0.6032
9.1807,419,1.3516
9.1851,751,2.4226
9.1893,676,2.1806
9.1937,292,0.9419
9.1979,200,0.6452
9.2022,556,1.7935
9.2064,756,2.4387
9.2107,549,1.7710
9.2150,212,0.6839
9.2192,264,0.8516
9.2235,653,2.1065
9.2278,727,2.3452
9.2320,406,1.3097
9.2363,168,0.5419
9.2406,382,1.2323
9.2449,718,2.3161
9.2491,662,2.1355
9.2534,288,0.9290
9.2577,179,0.5774
9.2620,519,1.6742
9.2662,737,2.3774
9.2705,553,1.7839
9.2748,210,0.6774
9.2790,239,0.7710
9.2833,621,2.0032
9.2876,697,2.2484
9.2925,366,1.1806
9.2968,209,0.6742
9.3011,470,1.5161
9.3053,734,2.3677
9.3096,633,2.0419
9.3139,302,0.9742
9.3181,269,0.8677
9.3224,621,2.0032
9.3267,768,2.4774
9.3309,547,1.7645
9.3353,267,0.8613
9.3396,373,1.2032
9.3439,728,2.3484
9.3481,744,2.4000
9.3525,420,1.3548
9.3567,257,0.8290
9.3610,499,1.6097
9.3652,780,2.5161
9.3695,687,2.2161
9.3738,320,1.0323
9.3780,246,0.7935
9.3823,607,1.9581
9.3866,806,2.6000
9.3909,586,1.8903
9.3952,259,0.8355
9.3995,342,1.1032
9.4038,729,2.3516
9.4081,777,2.5065
9.4124,437,1.4097
9.4167,230,0.7419
9.4209,480,1.5484
9.4253,794,2.5613
9.4296,703,2.2677
9.4339,325,1.0484
9.4382,259,0.8355
9.4425,629,2.0290
9.4468,802,2.5871
9.4511,563,1.8161
9.4554,254,0.8194
9.4597,355,1.1452
9.4640,734,2.3677
9.4683,764,2.4645
9.4727,407,1.3129
9.4771,230,0.7419
9.4817,547,1.7645
9.4860,796,2.5677
9.4904,628,2.0258
9.4946,276,0.8903
9.4989,288,0.9290
9.5031,676,2.1806
9.5074,790,2.5484
9.5116,513,1.6548
9.5159,239,0.7710
9.5202,395,1.2742
9.5244,757,2.4419
9.5287,749,2.4161
9.5330,385,1.2419
9.5373,227,0.7323
9.5416,535,1.7258
9.5459,793,2.5581
9.5501,648,2.0903
9.5544,295,0.9516
9.5587,284,0.9161
9.5629,667,2.1516
9.5672,792,2.5548
9.5715,522,1.6839
9.5757,242,0.7806
9.5800,385,1.2419
9.5843,763,2.4613
9.5886,781,2.5194
9.5929,433,1.3968
9.5972,268,0.8645
9.6015,558,1.8000
9.6058,818,2.6387
9.6101,673,2.1710
9.6144,310,1.0000
9.6187,297,0.9581
9.6231,682,2.2000
9.6275,782,2.5226
9.6318,486,1.5677
9.6361,223,0.7194
9.6405,410,1.3226
9.6448,759,2.4484
9.6491,711,2.2935
9.6534,343,1.1065
9.6577,227,0.7323
9.6620,563,1.8161
9.6663,776,2.5032
9.6706,586,1.8903
9.6749,254,0.8194
9.6792,293,0.9452
9.6836,688,2.2194
9.6879,758,2.4452
9.6922,439,1.4161
9.6965,206,0.6645
9.7007,414,1.3355
9.7050,748,2.4129
9.7093,717,2.3129
9.7135,397,1.2806
9.7178,358,1.1548
9.7221,753,2.4290
9.7263,999,3.2226
9.7306,867,2.7968
9.7348,445,1.4355
9.7391,361,1.1645
9.7434,700,2.2581
9.7477,782,2.5226
9.7520,478,1.5419
9.7562,220,0.7097
9.7605,396,1.2774
9.7648,738,2.3806
9.7690,705,2.2742
9.7733,340,1.0968
9.7776,206,0.6645
9.7819,523,1.6871
9.7862,759,2.4484
9.7905,583,1.8806
9.7948,238,0.7677
9.7991,264,0.8516
9.8034,658,2.1226
9.8077,756,2.4387
9.8120,451,1.4548
9.8163,200,0.6452
9.8206,397,1.2806
9.8249,743,2.3968
9.8292,697,2.2484
9.8335,320,1.0323
9.8377,206,0.6645
9.8421,547,1.7645
9.8464,765,2.4677
9.8507,570,1.8387
9.8550,229,0.7387
9.8593,275,0.8871
9.8636,665,2.1452
9.8679,747,2.4097
9.8722,431,1.3903
9.8765,195,0.6290
9.8808,411,1.3258
9.8851,741,2.3903
9.8894,671,2.1645
9.8937,296,0.9548
9.8980,204,0.6581
9.9023,558,1.8000
9.9066,751,2.4226
9.9109,537,1.7323
9.9152,210,0.6774
9.9195,279,0.9000
9.9238,667,2.1516
9.9281,714,2.3032
9.9324,384,1.2387
9.9367,173,0.5581
9.9410,420,1.3548
9.9453,730,2.3548
9.9496,633,2.0419
9.9539,263,0.8484
9.9582,194,0.6258
9.9626,567,1.8290
9.9669,742,2.3935
9.9712,505,1.6290
9.9755,199,0.6419
9.9798,306,0.9871
9.9841,696,2.2452
9.9884,734,2.3677
9.9927,398,1.2839
9.9970,218,0.7032
10.0013,487,1.5710
10.0055,777,2.5065
10.0099,669,2.1581
10.0143,297,0.9581
10.0188,291,0.9387
10.0233,704,2.2710
10.0279,794,2.5613
10.0333,368,1.1871
10.0379,260,0.8387
10.0424,618,1.9935
10.0467,808,2.6065
10.0510,590,1.9032
10.0553,269,0.8677
10.0596,347,1.1194
10.0639,729,2.3516
10.0682,779,2.5129
10.0725,444,1.4323
10.0787,294,0.9484
10.0832,686,2.2129
10.0877,791,2.5516
10.0920,501,1.6161
10.0963,270,0.8710
10.1005,451,1.4548
10.1047,761,2.4548
10.1090,716,2.3097
10.1132,380,1.2258
10.1175,272,0.8774
10.1217,570,1.8387
10.1260,784,2.5290
10.1302,632,2.0387
10.1345,309,0.9968
10.1387,312,1.0065
10.1430,664,2.1419
10.1473,762,2.4581
10.1515,511,1.6484
10.1557,261,0.8419
10.1600,392,1.2645
10.1642,733,2.3645
10.1685,732,2.3613
10.1727,412,1.3290
10.1769,259,0.8355
10.1812,510,1.6452
10.1854,769,2.4806
10.1897,666,2.1484
10.1940,328,1.0581
10.1982,286,0.9226
10.2025,635,2.0484
10.2068,782,2.5226
10.2111,555,1.7903
10.2154,273,0.8806
10.2197,377,1.2161
10.2240,732,2.3613
10.2284,743,2.3968
10.2326,417,1.3452
10.2370,253,0.8161
10.2413,519,1.6742
10.2457,778,2.5097
10.2500,654,2.1097
10.2543,313,1.0097
10.2586,292,0.9419
10.2629,651,2.1000
10.2672,779,2.5129
10.2715,535,1.7258
10.2758,282,0.9097
10.2801,425,1.3710
10.2844,763,2.4613
10.2887,746,2.4065
10.2930,407,1.3129
10.2973,271,0.8742
10.3016,556,1.7935
10.3059,784,2.5290
10.3102,631,2.0355
10.3145,296,0.9548
10.3188,298,0.9613
10.3231,661,2.1323
10.3274,757,2.4419
10.3317,487,1.5710
10.3362,244,0.7871
10.3405,434,1.4000
10.3449,744,2.4000
10.3492,683,2.2032
10.3535,341,1.1000
10.3578,255,0.8226
10.3621,575,1.8548
10.3664,760,2.4516
10.3707,572,1.8452
10.3764,241,0.7774
10.3808,453,1.4613
10.3852,727,2.3452
10.3896,632,2.0387
10.3939,295,0.9516
10.3982,267,0.8613
10.4025,664,2.1419
10.4068,900,2.9032
10.4110,748,2.4129
10.4153,525,1.6935
10.4196,597,1.9258
10.4238,867,2.7968
10.4281,815,2.6290
10.4324,459,1.4806
10.4366,243,0.7839
10.4409,460,1.4839
10.4452,763,2.4613
10.4495,684,2.2065
10.4538,318,1.0258
10.4580,230,0.7419
10.4623,569,1.8355
10.4666,764,2.4645
10.4708,565,1.8226
10.4751,243,0.7839
10.4794,291,0.9387
10.4836,671,2.1645
10.4879,747,2.4097
10.4922,438,1.4129
10.4965,198,0.6387
10.5008,407,1.3129
10.5051,744,2.4000
10.5094,688,2.2194
10.5137,308,0.9935
10.5180,205,0.6613
10.5223,557,1.7968
10.5266,771,2.4871
10.5308,574,1.8516
10.5351,236,0.7613
10.5396,301,0.9710
10.5439,695,2.2419
10.5482,750,2.4194
10.5525,407,1.3129
10.5568,190,0.6129
10.5612,441,1.4226
10.5655,754,2.4323
10.5698,661,2.1323
10.5741,280,0.9032
10.5783,211,0.6806
10.5826,581,1.8742
10.5870,760,2.4516
10.5912,524,1.6903
10.5956,200,0.6452
10.5998,291,0.9387
10.6041,678,2.1871
10.6085,709,2.2871
10.6128,361,1.1645
10.6171,166,0.5355
10.6213,432,1.3935
10.6257,724,2.3355
10.6300,604,1.9484
10.6343,232,0.7484
10.6386,189,0.6097
10.6429,578,1.8645
10.6472,733,2.3645
10.6515,473,1.5258
10.6558,181,0.5839
10.6601,314,1.0129
10.6644,698,2.2516
10.6687,712,2.2968
10.6731,358,1.1548
10.6773,196,0.6323
10.6816,500,1.6129
10.6859,780,2.5161
10.6903,651,2.1000
10.6946,290,0.9355
10.6989,276,0.8903
10.7032,670,2.1613
10.7075,805,2.5968
10.7118,527,1.7000
10.7161,249,0.8032
10.7204,403,1.3000
10.7247,766,2.4710
10.7290,758,2.4452
10.7333,394,1.2710
10.7376,244,0.7871
10.7419,558,1.8000
10.7462,806,2.6000
10.7506,641,2.0677
10.7548,287,0.9258
10.7591,296,0.9548
10.7634,690,2.2258
10.7678,799,2.5774
10.7721,507,1.6355
10.7764,251,0.8097
10.7807,445,1.4355
10.7850,792,2.5548
10.7893,744,2.4000
10.7937,358,1.1548
10.7980,246,0.7935
10.8023,587,1.8935
10.8066,804,2.5935
10.8109,607,1.9581
10.8152,273,0.8806
10.8195,321,1.0355
10.8238,714,2.3032
10.8281,784,2.5290
10.8325,463,1.4935
10.8368,239,0.7710
10.8410,467,1.5065
10.8454,790,2.5484
10.8496,719,2.3194
10.8540,344,1.1097
10.8582,253,0.8161
10.8625,607,1.9581
10.8668,799,2.5774
10.8711,582,1.8774
10.8755,260,0.8387
10.8798,354,1.1419
10.8841,748,2.4129
10.8884,795,2.5645
10.8927,452,1.4581
10.8970,243,0.7839
10.9012,487,1.5710
10.9055,794,2.5613
10.9097,709,2.2871
10.9140,327,1.0548
10.9183,244,0.7871
10.9225,613,1.9774
10.9268,822,2.6516
10.9311,621,2.0032
10.9354,296,0.9548
10.9396,358,1.1548
10.9439,752,2.4258
10.9482,827,2.6677
10.9524,504,1.6258
10.9567,265,0.8548
10.9610,477,1.5387
10.9652,801,2.5839
10.9695,736,2.3742
10.9738,351,1.1323
10.9782,253,0.8161
10.9826,609,1.9645
10.9869,793,2.5581
10.9912,577,1.8613
10.9955,252,0.8129
10.9998,332,1.0710
11.0040,716,2.3097
11.0083,767,2.4742
11.0125,434,1.4000
11.0168,213,0.6871
11.0210,437,1.4097
11.0253,775,2.5000
11.0295,736,2.3742
11.0338,371,1.1968
11.0381,248,0.8000
11.0424,567,1.8290
11.0466,779,2.5129
11.0509,604,1.9484
11.0552,303,0.9774
11.0594,407,1.3129
11.0637,865,2.7903
11.0680,999,3.2226
11.0723,787,2.5387
11.0765,482,1.5548
11.0808,541,1.7452
11.0851,794,2.5613
11.0894,726,2.3419
11.0978,164,0.5290
11.1022,487,1.5710
11.1065,752,2.4258
11.1109,612,1.9742
11.1152,276,0.8903
11.1194,300,0.9677
11.1238,678,2.1871
11.1281,762,2.4581
11.1324,452,1.4581
11.1367,222,0.7161
11.1410,446,1.4387
11.1453,771,2.4871
11.1497,700,2.2581
11.1540,321,1.0355
11.1583,224,0.7226
11.1626,577,1.8613
11.1669,774,2.4968
11.1712,567,1.8290
11.1755,239,0.7710
11.1798,303,0.9774
11.1841,676,2.1806
11.1884,733,2.3645
11.1927,414,1.3355
11.1970,216,0.6968
11.2014,473,1.5258
11.2057,770,2.4839
11.2100,667,2.1516
11.2143,292,0.9419
11.2186,228,0.7355
11.2229,584,1.8839
11.2272,764,2.4645
11.2315,545,1.7581
11.2358,242,0.7806
11.2401,348,1.1226
11.2444,730,2.3548
11.2487,746,2.4065
11.2530,390,1.2581
11.2573,200,0.6452
11.2616,477,1.5387
11.2659,759,2.4484
11.2702,640,2.0645
11.2746,202,0.6516
11.2811,411,1.3258
11.2855,725,2.3387
11.2897,643,2.0742
11.2940,274,0.8839
11.2983,171,0.5516
11.3026,519,1.6742
11.3069,730,2.3548
11.3112,531,1.7129
11.3154,200,0.6452
11.3197,277,0.8935
11.3240,699,2.2548
11.3282,802,2.5871
11.3325,508,1.6387
11.3368,276,0.8903
11.3410,482,1.5548
11.3453,803,2.5903
11.3496,744,2.4000
11.3539,375,1.2097
11.3581,273,0.8806
11.3624,610,1.9677
11.3667,824,2.6581
11.3709,637,2.0548
11.3752,287,0.9258
11.3795,318,1.0258
11.3838,716,2.3097
11.3880,811,2.6161
11.3923,511,1.6484
11.3966,256,0.8258
11.4008,448,1.4452
11.4052,789,2.5452
11.4095,741,2.3903
11.4138,365,1.1774
11.4181,247,0.7968
11.4224,601,1.9387
11.4267,828,2.6710
11.4310,630,2.0323
11.4353,286,0.9226
11.4398,346,1.1161
11.4441,728,2.3484
11.4485,785,2.5323
11.4528,457,1.4742
11.4571,255,0.8226
11.4614,496,1.6000
11.4657,791,2.5516
11.4700,682,2.2000
11.4743,277,0.8935
11.4785,205,0.6613
11.4828,601,1.9387
11.4871,811,2.6161
11.4914,598,1.9290
11.4957,302,0.9742
11.5000,403,1.3000
11.5044,783,2.5258
11.5087,799,2.5774
11.5130,445,1.4355
11.5173,255,0.8226
11.5216,526,1.6968
11.5259,812,2.6194
11.5302,689,2.2226
11.5345,314,1.0129
11.5388,266,0.8581
11.5431,634,2.0452
11.5475,776,2.5032
11.5519,505,1.6290
11.5562,231,0.7452
11.5605,390,1.2581
11.5648,759,2.4484
11.5691,752,2.4258
11.5734,381,1.2290
11.5777,224,0.7226
11.5820,527,1.7000
11.5863,792,2.5548
11.5906,651,2.1000
11.5949,306,0.9871
11.5992,310,1.0000
11.6035,696,2.2452
11.6078,805,2.5968
11.6121,510,1.6452
11.6164,232,0.7484
11.6207,384,1.2387
11.6250,721,2.3258
11.6293,686,2.2129
11.6336,321,1.0355
11.6378,188,0.6065
11.6422,529,1.7065
11.6465,793,2.5581
11.6508,646,2.0839
11.6551,301,0.9710
11.6594,320,1.0323
11.6637,709,2.2871
11.6680,807,2.6032
11.6723,500,1.6129
11.6766,238,0.7677
11.6809,412,1.3290
11.6853,755,2.4355
11.6897,693,2.2355
11.6940,314,1.0129
11.6983,212,0.6839
11.7026,547,1.7645
11.7069,741,2.3903
11.7112,544,1.7548
11.7155,249,0.8032
11.7198,393,1.2677
11.7241,883,2.8484
11.7284,997,3.2161
11.7327,736,2.3742
11.7370,447,1.4419
11.7413,555,1.7903
11.7456,797,2.5710
11.7499,698,2.2516
11.7542,318,1.0258
11.7585,231,0.7452
11.7628,581,1.8742
11.7671,767,2.4742
11.7714,546,1.7613
11.7757,217,0.7000
11.7800,289,0.9323
11.7843,674,2.1742
11.7886,720,2.3226
11.7929,380,1.2258
11.7972,184,0.5935
11.8015,442,1.4258
11.8058,744,2.4000
11.8101,634,2.0452
11.8144,243,0.7839
11.8187,143,0.4613
11.8230,526,1.6968
11.8273,744,2.4000
11.8316,542,1.7484
11.8359,241,0.7774
11.8402,330,1.0645
11.8446,713,2.3000
11.8489,750,2.4194
11.8532,400,1.2903
11.8575,209,0.6742
11.8618,487,1.5710
11.8661,761,2.4548
11.8704,637,2.0548
11.8748,196,0.6323
11.8813,415,1.3387
11.8857,729,2.3516
11.8900,655,2.1129
11.8943,289,0.9323
11.8986,209,0.6742
11.9029,565,1.8226
11.9072,734,2.3677
11.9115,505,1.6290
11.9158,189,0.6097
11.9200,271,0.8742
11.9243,651,2.1000
11.9285,694,2.2387
11.9328,371,1.1968
11.9371,169,0.5452
11.9414,407,1.3129
11.9456,716,2.3097
11.9499,626,2.0194
11.9542,269,0.8677
11.9585,207,0.6677
11.9628,570,1.8387
11.9670,758,2.4452
11.9713,546,1.7613
11.9756,209,0.6742
11.9799,264,0.8516
11.9842,657,2.1194
11.9884,728,2.3484
11.9927,422,1.3613
11.9969,205,0.6613
12.0012,420,1.3548
12.0055,741,2.3903
12.0098,661,2.1323
12.0140,255,0.8226
12.0183,152,0.4903
12.0226,514,1.6581
12.0269,754,2.4323
12.0312,618,1.9935
12.0355,312,1.0065
12.0398,352,1.1355
12.0441,735,2.3710
12.0484,812,2.6194
12.0527,495,1.5968
12.0570,269,0.8677
12.0613,483,1.5581
12.0656,798,2.5742
12.0699,722,2.3290
12.0742,345,1.1129
12.0785,256,0.8258
12.0829,611,1.9710
12.0871,801,2.5839
12.0914,582,1.8774
12.0957,258,0.8323
12.1000,334,1.0774
12.1044,720,2.3226
12.1087,762,2.4581
12.1130,421,1.3581
12.1173,216,0.6968
12.1215,467,1.5065
12.1258,767,2.4742
12.1301,668,2.1548
12.1344,294,0.9484
12.1387,234,0.7548
12.1431,615,1.9839
12.1474,803,2.5903
12.1516,579,1.8677
12.1560,264,0.8516
12.1602,354,1.1419
12.1646,730,2.3548
12.1688,756,2.4387
12.1732,407,1.3129
12.1777,226,0.7290
12.1821,527,1.7000
12.1865,786,2.5355
12.1908,633,2.0419
12.1951,282,0.9097
12.1994,286,0.9226
12.2037,673,2.1710
12.2080,786,2.5355
12.2123,503,1.6226
12.2165,215,0.6935
12.2208,360,1.1613
12.2251,707,2.2806
12.2294,707,2.2806
12.2336,390,1.2581
12.2379,272,0.8774
12.2422,575,1.8548
12.2465,831,2.6806
12.2507,678,2.1871
12.2550,309,0.9968
12.2593,284,0.9161
12.2636,664,2.1419
12.2678,788,2.5419
12.2721,514,1.6581
12.2764,230,0.7419
12.2806,371,1.1968
12.2849,739,2.3839
12.2891,744,2.4000
12.2934,388,1.2516
12.2977,221,0.7129
12.3019,508,1.6387
12.3063,781,2.5194
12.3106,640,2.0645
12.3149,271,0.8742
12.3192,254,0.8194
12.3235,633,2.0419
12.3278,757,2.4419
12.3320,488,1.5742
12.3363,231,0.7452
12.3406,429,1.3839
12.3449,879,2.8355
12.3492,975,3.1452
12.3535,706,2.2774
12.3578,562,1.8129
12.3622,771,2.4871
12.3665,898,2.8968
12.3709,664,2.1419
12.3752,268,0.8645
12.3795,257,0.8290
12.3838,651,2.1000
12.3882,754,2.4323
12.3925,456,1.4710
12.3968,202,0.6516
12.4012,397,1.2806
12.4055,730,2.3548
12.4098,680,2.1935
12.4142,310,1.0000
12.4184,204,0.6581
12.4227,540,1.7419
12.4270,743,2.3968
12.4313,544,1.7548
12.4356,215,0.6935
12.4399,272,0.8774
12.4442,655,2.1129
12.4485,721,2.3258
12.4528,391,1.2613
12.4571,164,0.5290
12.4615,399,1.2871
12.4658,715,2.3065
12.4701,647,2.0871
12.4744,285,0.9194
12.4786,209,0.6742
12.4829,562,1.8129
12.4872,746,2.4065
12.4915,521,1.6806
12.4958,196,0.6323
12.5001,276,0.8903
12.5044,675,2.1774
12.5087,742,2.3935
12.5130,409,1.3194
12.5173,197,0.6355
12.5216,440,1.4194
12.5259,745,2.4032
12.5302,655,2.1129
12.5345,282,0.9097
12.5388,208,0.6710
12.5431,569,1.8355
12.5474,749,2.4161
12.5517,520,1.6774
12.5560,203,0.6548
12.5602,290,0.9355
12.5645,669,2.1581
12.5689,710,2.2903
12.5732,363,1.1710
12.5775,159,0.5129
12.5818,420,1.3548
12.5861,713,2.3000
12.5904,614,1.9806
12.5947,251,0.8097
12.5990,212,0.6839
12.6033,596,1.9226
12.6076,762,2.4581
12.6119,515,1.6613
12.6162,214,0.6903
12.6205,336,1.0839
12.6248,714,2.3032
12.6291,738,2.3806
12.6334,400,1.2903
12.6377,226,0.7290
12.6420,501,1.6161
12.6463,777,2.5065
12.6506,652,2.1032
12.6549,292,0.9419
12.6592,263,0.8484
12.6635,649,2.0935
12.6678,791,2.5516
12.6721,526,1.6968
12.6764,238,0.7677
12.6807,383,1.2355
12.6850,757,2.4419
12.6892,775,2.5000
12.6936,422,1.3613
12.6978,253,0.8161
12.7021,544,1.7548
12.7064,810,2.6129
12.7107,672,2.1677
12.7151,307,0.9903
12.7194,300,0.9677
12.7238,688,2.2194
12.7281,803,2.5903
12.7325,497,1.6032
12.7368,237,0.7645
12.7411,433,1.3968
12.7455,782,2.5226
12.7498,736,2.3742
12.7541,365,1.1774
12.7585,259,0.8355
12.7628,606,1.9548
12.7671,815,2.6290
12.7715,598,1.9290
12.7759,264,0.8516
12.7804,365,1.1774
12.7849,750,2.4194
12.7892,761,2.4548
12.7935,402,1.2968
12.7979,236,0.7613
12.8023,537,1.7323
12.8066,794,2.5613
12.8109,642,2.0710
12.8153,290,0.9355
12.8196,305,0.9839
12.8239,702,2.2645
12.8282,811,2.6161
12.8325,505,1.6290
12.8368,227,0.7323
12.8411,419,1.3516
12.8454,787,2.5387
12.8496,762,2.4581
12.8539,378,1.2194
12.8582,237,0.7645
12.8625,555,1.7903
12.8677,787,2.5387
12.8721,524,1.6903
12.8765,235,0.7581
12.8808,387,1.2484
12.8851,757,2.4419
12.8894,753,2.4290
12.8937,386,1.2452
12.8980,227,0.7323
12.9023,538,1.7355
12.9066,802,2.5871
12.9120,552,1.7806
12.9163,249,0.8032
12.9206,375,1.2097
12.9249,740,2.3871
12.9292,754,2.4323
12.9334,404,1.3032
12.9377,214,0.6903
12.9420,487,1.5710
12.9463,788,2.5419
12.9505,723,2.3323
12.9548,434,1.4000
12.9590,463,1.4935
12.9633,915,2.9516
12.9676,1003,3.2355
12.9719,845,2.7258
12.9761,431,1.3903
12.9804,417,1.3452
12.9847,740,2.3871
12.9889,768,2.4774
12.9931,432,1.3935
12.9974,219,0.7065
13.0017,460,1.4839
13.0060,771,2.4871
13.0102,685,2.2097
13.0145,304,0.9806
13.0188,228,0.7355
13.0231,602,1.9419
13.0274,782,2.5226
13.0317,535,1.7258
13.0359,200,0.6452
13.0402,294,0.9484
13.0446,707,2.2806
13.0488,753,2.4290
13.0531,389,1.2548
13.0574,173,0.5581
13.0617,446,1.4387
13.0660,773,2.4935
13.0703,670,2.1613
13.0747,261,0.8419
13.0793,239,0.7710
13.0838,666,2.1484
13.0881,780,2.5161
13.0924,458,1.4774
13.0967,175,0.5645
13.1010,373,1.2032
13.1054,758,2.4452
13.1097,725,2.3387
13.1140,313,1.0097
13.1184,171,0.5516
13.1227,534,1.7226
13.1270,781,2.5194
13.1313,585,1.8871
13.1356,213,0.6871
13.1399,257,0.8290
13.1442,670,2.1613
13.1485,754,2.4323
13.1527,420,1.3548
13.1570,156,0.5032
13.1613,365,1.1774
13.1656,719,2.3194
13.1701,646,2.0839
13.1744,245,0.7903
13.1788,160,0.5161
13.1831,554,1.7871
13.1875,758,2.4452
13.1918,514,1.6581
13.1961,178,0.5742
13.2004,270,0.8710
13.2047,668,2.1548
13.2090,709,2.2871
13.2135,345,1.1129
13.2178,167,0.5387
13.2220,459,1.4806
13.2263,770,2.4839
13.2306,675,2.1774
13.2348,316,1.0194
13.2391,261,0.8419
13.2434,639,2.0613
13.2477,805,2.5968
13.2519,573,1.8484
13.2562,267,0.8613
13.2605,373,1.2032
13.2647,762,2.4581
13.2690,803,2.5903
13.2733,457,1.4742
13.2776,256,0.8258
13.2819,506,1.6323
13.2861,809,2.6097
13.2904,721,2.3258
13.2947,350,1.1290
13.2989,275,0.8871
13.3032,635,2.0484
13.3076,815,2.6290
13.3118,588,1.8968
13.3161,267,0.8613
13.3204,355,1.1452
13.3247,747,2.4097
13.3290,790,2.5484
13.3333,452,1.4581
13.3376,242,0.7806
13.3419,492,1.5871
13.3462,801,2.5839
13.3505,711,2.2935
13.3548,345,1.1129
13.3591,276,0.8903
13.3634,640,2.0645
13.3679,807,2.6032
13.3724,567,1.8290
13.3769,261,0.8419
13.3813,366,1.1806
13.3858,741,2.3903
13.3903,770,2.4839
13.3948,425,1.3710
13.3992,241,0.7774
13.4037,517,1.6677
13.4082,800,2.5806
13.4126,681,2.1968
13.4173,307,0.9903
13.4217,278,0.8968
13.4261,664,2.1419
13.4307,817,2.6355
13.4351,567,1.8290
13.4395,261,0.8419
13.4439,365,1.1774
13.4484,751,2.4226
13.4528,779,2.5129
13.4573,424,1.3677
13.4617,224,0.7226
13.4662,486,1.5677
13.4707,783,2.5258
13.4752,672,2.1677
13.4797,302,0.9742
13.4842,250,0.8065
13.4885,624,2.0129
13.4931,803,2.5903
13.4975,565,1.8226
13.5020,257,0.8290
13.5065,357,1.1516
13.5109,729,2.3516
13.5154,763,2.4613
13.5199,420,1.3548
13.5245,231,0.7452
13.5290,515,1.6613
13.5335,790,2.5484
13.5378,678,2.1871
13.5423,307,0.9903
13.5467,240,0.7742
13.5511,587,1.8935
13.5556,765,2.4677
13.5600,566,1.8258
13.5645,294,0.9484
13.5689,452,1.4581
13.5734,921,2.9710
13.5778,998,3.2194
13.5823,776,2.5032
13.5867,468,1.5097
13.5912,554,1.7871
13.5956,791,2.5516
13.6000,698,2.2516
13.6045,322,1.0387
13.6089,229,0.7387
13.6134,573,1.8484
13.6178,768,2.4774
13.6223,570,1.8387
13.6267,243,0.7839
13.6313,297,0.9581
13.6357,675,2.1774
13.6402,748,2.4129
13.6446,440,1.4194
13.6491,209,0.6742
13.6536,426,1.3742
13.6581,747,2.4097
13.6626,681,2.1968
13.6670,310,1.0000
13.6715,209,0.6742
13.6759,551,1.7774
13.6806,755,2.4355
13.6853,526,1.6968
13.6898,222,0.7161
13.6944,333,1.0742
13.6989,712,2.2968
13.7033,730,2.3548
13.7079,378,1.2194
13.7124,192,0.6194
13.7169,471,1.5194
13.7214,756,2.4387
13.7259,628,2.0258
13.7304,266,0.8581
13.7350,242,0.7806
13.7394,618,1.9935
13.7439,748,2.4129
13.7484,474,1.5290
13.7529,199,0.6419
13.7574,348,1.1226
13.7618,704,2.2710
13.7663,691,2.2290
13.7708,330,1.0645
13.7753,179,0.5774
13.7798,484,1.5613
13.7842,742,2.3935
13.7887,589,1.9000
13.7932,234,0.7548
13.7977,226,0.7290
13.8022,610,1.9677
13.8067,734,2.3677
13.8112,457,1.4742
13.8156,190,0.6129
13.8201,361,1.1645
13.8246,718,2.3161
13.8291,693,2.2355
13.8335,326,1.0516
13.8380,185,0.5968
13.8426,513,1.6548
13.8470,764,2.4645
13.8515,604,1.9484
13.8560,259,0.8355
13.8605,286,0.9226
13.8649,671,2.1645
13.8695,777,2.5065
13.8740,475,1.5323
13.8785,227,0.7323
13.8830,440,1.4194
13.8876,784,2.5290
13.8921,737,2.3774
13.8966,365,1.1774
13.9011,269,0.8677
13.9056,621,2.0032
13.9101,814,2.6258
13.9147,595,1.9194
13.9192,268,0.8645
13.9237,351,1.1323
13.9282,737,2.3774
13.9327,778,2.5097
13.9371,447,1.4419
13.9417,241,0.7774
13.9462,492,1.5871
13.9507,781,2.5194
13.9552,674,2.1742
13.9597,317,1.0226
13.9642,271,0.8742
13.9687,638,2.0581
13.9731,793,2.5581
13.9777,540,1.7419
13.9823,249,0.8032
13.9869,405,1.3065
13.9914,763,2.4613
13.9959,751,2.4226
14.0004,389,1.2548
14.0048,248,0.8000
14.0093,550,1.7742
14.0138,801,2.5839
14.0182,651,2.1000
14.0227,299,0.9645
14.0272,292,0.9419
14.0317,670,2.1613
14.0361,791,2.5516
14.0407,510,1.6452
14.0451,248,0.8000
14.0495,403,1.3000
14.0538,754,2.4323
14.0583,763,2.4613
14.0628,404,1.3032
14.0673,238,0.7677
14.0718,522,1.6839
14.0762,793,2.5581
14.0807,661,2.1323
14.0852,290,0.9355
14.0897,261,0.8419
14.0942,639,2.0613
14.0986,776,2.5032
14.1031,519,1.6742
14.1076,245,0.7903
14.1121,392,1.2645
14.1165,750,2.4194
14.1210,751,2.4226
14.1255,396,1.2774
14.1300,240,0.7742
14.1345,535,1.7258
14.1389,794,2.5613
14.1434,651,2.1000
14.1479,297,0.9581
14.1524,291,0.9387
14.1568,673,2.1710
14.1614,790,2.5484
14.1658,512,1.6516
14.1704,246,0.7935
14.1749,408,1.3161
14.1794,747,2.4097
14.1839,721,2.3258
14.1885,378,1.2194
14.1930,304,0.9806
14.1975,709,2.2871
14.2020,996,3.2129
14.2065,893,2.8806
14.2110,551,1.7774
14.2155,475,1.5323
14.2200,750,2.4194
14.2246,778,2.5097
14.2291,446,1.4387
14.2336,226,0.7290
14.2381,454,1.4645
14.2426,763,2.4613
14.2471,670,2.1613
14.2516,295,0.9516
14.2562,228,0.7355
14.2607,600,1.9355
14.2652,769,2.4806
14.2697,525,1.6935
14.2742,224,0.7226
14.2787,338,1.0903
14.2832,707,2.2806
14.2877,714,2.3032
14.2921,362,1.1677
14.2966,194,0.6258
14.3011,481,1.5516
14.3055,770,2.4839
14.3100,655,2.1129
14.3145,280,0.9032
14.3190,233,0.7516
14.3234,610,1.9677
14.3279,762,2.4581
14.3324,509,1.6419
14.3368,205,0.6613
14.3413,313,1.0097
14.3457,690,2.2258
14.3502,715,2.3065
14.3547,368,1.1871
14.3592,188,0.6065
14.3636,460,1.4839
14.3681,737,2.3774
14.3726,608,1.9613
14.3770,239,0.7710
14.3815,209,0.6742
14.3860,600,1.9355
14.3905,741,2.3903
14.3950,471,1.5194
14.3995,190,0.6129
14.4040,344,1.1097
14.4085,701,2.2613
14.4130,675,2.1774
14.4175,303,0.9774
14.4220,167,0.5387
14.4265,497,1.6032
14.4310,737,2.3774
14.4355,557,1.7968
14.4399,209,0.6742
14.4445,248,0.8000
14.4490,642,2.0710
14.4535,716,2.3097
14.4580,396,1.2774
14.4625,172,0.5548
14.4670,406,1.3097
14.4715,728,2.3484
14.4759,650,2.0968
14.4804,284,0.9161
14.4850,225,0.7258
14.4894,600,1.9355
14.4939,780,2.5161
14.4983,555,1.7903
14.5028,246,0.7935
14.5072,345,1.1129
14.5117,731,2.3581
14.5161,772,2.4903
14.5206,437,1.4097
14.5250,237,0.7645
14.5295,495,1.5968
14.5339,797,2.5710
14.5384,701,2.2613
14.5428,329,1.0613
14.5473,266,0.8581
14.5517,634,2.0452
14.5562,806,2.6000
14.5606,571,1.8419
14.5651,262,0.8452
14.5696,360,1.1613
14.5742,752,2.4258
14.5787,772,2.4903
14.5833,401,1.2935
14.5879,246,0.7935
14.5924,555,1.7903
14.5968,806,2.6000
14.6013,652,2.1032
14.6057,302,0.9742
14.6101,293,0.9452
14.6146,672,2.1677
14.6191,793,2.5581
14.6235,517,1.6677
14.6280,259,0.8355
14.6325,422,1.3613
14.6368,761,2.4548
14.6413,743,2.3968
14.6458,383,1.2355
14.6502,242,0.7806
14.6547,550,1.7742
14.6591,803,2.5903
14.6636,658,2.1226
14.6680,310,1.0000
14.6725,310,1.0000
14.6770,688,2.2194
14.6814,795,2.5645
14.6862,478,1.5419
14.6908,252,0.8129
14.6953,467,1.5065
14.6997,779,2.5129
14.7042,706,2.2774
14.7086,332,1.0710
14.7131,242,0.7806
14.7175,590,1.9032
14.7220,788,2.5419
14.7264,581,1.8742
14.7309,253,0.8161
14.7355,330,1.0645
14.7401,725,2.3387
14.7446,759,2.4484
14.7490,416,1.3419
14.7535,220,0.7097
14.7579,478,1.5419
14.7624,771,2.4871
14.7668,671,2.1645
14.7713,305,0.9839
14.7757,252,0.8129
14.7802,626,2.0194
14.7846,789,2.5452
14.7891,539,1.7387
14.7936,226,0.7290
14.7980,340,1.0968
14.8025,738,2.3806
14.8070,800,2.5806
14.8115,525,1.6935
14.8160,420,1.3548
14.8205,789,2.5452
14.8250,1003,3.2355
14.8295,905,2.9194
14.8340,463,1.4935
14.8384,350,1.1290
14.8430,683,2.2032
14.8475,775,2.5000
14.8520,479,1.5452
14.8565,215,0.6935
14.8610,396,1.2774
14.8655,743,2.3968
14.8699,702,2.2645
14.8744,333,1.0742
14.8789,220,0.7097
14.8836,572,1.8452
14.8882,768,2.4774
14.8927,543,1.7516
14.8972,231,0.7452
14.9017,331,1.0677
14.9061,708,2.2839
14.9106,744,2.4000
14.9150,406,1.3097
14.9195,210,0.6774
14.9240,471,1.5194
14.9285,764,2.4645
14.9329,661,2.1323
14.9373,298,0.9613
14.9418,241,0.7774
14.9462,603,1.9452
14.9507,769,2.4806
14.9552,535,1.7258
14.9596,232,0.7484
14.9641,336,1.0839
14.9685,711,2.2935
14.9730,736,2.3742
14.9774,392,1.2645
14.9819,209,0.6742
14.9863,469,1.5129
14.9908,761,2.4548
14.9952,655,2.1129
14.9997,286,0.9226
15.0041,234,0.7548
15.0086,605,1.9516
15.0130,759,2.4484
15.0175,511,1.6484
15.0223,201,0.6484
15.0269,372,1.2000
15.0316,729,2.3516
15.0363,660,2.1290
15.0410,273,0.8806
15.0455,208,0.6710
15.0501,585,1.8871
15.0546,742,2.3935
15.0591,494,1.5935
15.0635,194,0.6258
15.0680,307,0.9903
15.0724,689,2.2226
15.0769,718,2.3161
15.0813,378,1.2194
15.0858,201,0.6484
15.0902,482,1.5548
15.0947,774,2.4968
15.0992,665,2.1452
15.1036,309,0.9968
15.1081,272,0.8774
15.1125,650,2.0968
15.1170,806,2.6000
15.1214,561,1.8097
15.1258,264,0.8516
15.1303,371,1.1968
15.1347,737,2.3774
15.1391,770,2.4839
15.1435,431,1.3903
15.1480,241,0.7774
15.1524,498,1.6065
15.1568,789,2.5452
15.1613,693,2.2355
15.1657,331,1.0677
15.1701,269,0.8677
15.1745,626,2.0194
15.1789,803,2.5903
15.1834,585,1.8871
15.1878,270,0.8710
15.1922,347,1.1194
15.1967,724,2.3355
15.2011,783,2.5258
15.2055,462,1.4903
15.2099,249,0.8032
15.2144,474,1.5290
15.2188,786,2.5355
15.2233,709,2.2871
15.2279,337,1.0871
15.2323,267,0.8613
15.2367,620,2.0000
15.2412,803,2.5903
15.2457,572,1.8452
15.2502,260,0.8387
15.2547,356,1.1484
15.2592,724,2.3355
15.2637,749,2.4161
15.2682,406,1.3097
15.2727,232,0.7484
15.2772,511,1.6484
15.2817,783,2.5258
15.2862,657,2.1194
15.2907,314,1.0129
15.2951,310,1.0000
15.2996,696,2.2452
15.3041,821,2.6484
15.3086,541,1.7452
15.3130,269,0.8677
15.3175,432,1.3935
15.3221,789,2.5452
15.3266,753,2.4290
15.3310,378,1.2194
15.3356,246,0.7935
15.3402,586,1.8903
15.3446,797,2.5710
15.3491,596,1.9226
15.3536,255,0.8226
15.3580,300,0.9677
15.3625,686,2.2129
15.3669,763,2.4613
15.3714,447,1.4419
15.3758,215,0.6935
15.3802,424,1.3677
15.3846,749,2.4161
15.3891,690,2.2258
15.3935,318,1.0258
15.3979,221,0.7129
15.4024,566,1.8258
15.4068,769,2.4806
15.4112,565,1.8226
15.4157,224,0.7226
15.4201,278,0.8968
15.4245,689,2.2226
15.4290,794,2.5613
15.4334,520,1.6774
15.4378,358,1.1548
15.4423,638,2.0581
15.4468,1002,3.2323
15.4513,948,3.0581
15.4558,499,1.6097
15.4602,301,0.9710
15.4647,603,1.9452
15.4692,762,2.4581
15.4736,527,1.7000
15.4780,217,0.7000
15.4827,329,1.0613
15.4873,700,2.2581
15.4918,693,2.2355
15.4963,326,1.0516
15.5008,183,0.5903
15.5052,492,1.5871
15.5097,741,2.3903
15.5142,579,1.8677
15.5186,223,0.7194
15.5231,237,0.7645
15.5276,626,2.0194
15.5322,718,2.3161
15.5365,418,1.3484
15.5410,180,0.5806
15.5454,377,1.2161
15.5498,716,2.3097
15.5541,676,2.1806
15.5586,312,1.0065
15.5630,188,0.6065
15.5674,508,1.6387
15.5719,735,2.3710
15.5763,562,1.8129
15.5807,221,0.7129
15.5852,243,0.7839
15.5896,627,2.0226
15.5940,721,2.3258
15.5985,426,1.3742
15.6029,180,0.5806
15.6073,368,1.1871
15.6118,705,2.2742
15.6162,662,2.1355
15.6206,295,0.9516
15.6251,176,0.5677
15.6295,502,1.6194
15.6339,723,2.3323
15.6383,550,1.7742
15.6428,209,0.6742
15.6472,237,0.7645
15.6517,621,2.0032
15.6561,709,2.2871
15.6605,408,1.3161
15.6650,169,0.5452
15.6694,365,1.1774
15.6738,697,2.2484
15.6783,651,2.1000
15.6827,287,0.9258
15.6872,177,0.5710
15.6916,514,1.6581
15.6960,727,2.3452
15.7004,544,1.7548
15.7049,213,0.6871
15.7093,256,0.8258
15.7137,646,2.0839
15.7182,737,2.3774
15.7226,440,1.4194
15.7271,211,0.6806
15.7315,421,1.3581
15.7359,749,2.4161
15.7406,677,2.1839
15.7450,311,1.0032
15.7495,232,0.7484
15.7540,584,1.8839
15.7585,761,2.4548
15.7629,536,1.7290
15.7674,231,0.7452
15.7719,331,1.0677
15.7764,706,2.2774
15.7809,722,2.3290
15.7855,367,1.1839
15.7901,219,0.7065
15.7946,521,1.6806
15.7990,763,2.4613
15.8035,600,1.9355
15.8079,256,0.8258
15.8124,272,0.8774
15.8169,654,2.1097
15.8214,751,2.4226
15.8258,458,1.4774
15.8303,218,0.7032
15.8348,415,1.3387
15.8392,737,2.3774
15.8437,684,2.2065
15.8481,331,1.0677
15.8526,233,0.7516
15.8570,568,1.8323
15.8615,769,2.4806
15.8659,576,1.8581
15.8703,249,0.8032
15.8748,301,0.9710
15.8792,681,2.1968
15.8837,748,2.4129
15.8882,434,1.4000
15.8926,219,0.7065
15.8971,443,1.4290
15.9015,752,2.4258
15.9059,688,2.2194
15.9104,340,1.0968
15.9148,261,0.8419
15.9192,601,1.9387
15.9237,775,2.5000
15.9281,566,1.8258
15.9325,257,0.8290
15.9369,319,1.0290
15.9413,683,2.2032
15.9457,735,2.3710
15.9502,413,1.3323
15.9546,207,0.6677
15.9592,442,1.4258
15.9636,735,2.3710
15.9681,640,2.0645
15.9726,279,0.9000
15.9770,224,0.7226
15.9815,588,1.8968
15.9860,742,2.3935
15.9904,498,1.6065
15.9949,208,0.6710
15.9994,334,1.0774
16.0039,699,2.2548
16.0083,697,2.2484
16.0128,344,1.1097
16.0173,192,0.6194
16.0218,494,1.5935
16.0262,730,2.3548
16.0307,564,1.8194
16.0352,222,0.7161
16.0396,263,0.8484
16.0440,686,2.2129
16.0485,849,2.7387
16.0530,636,2.0516
16.0574,502,1.6194
16.0619,723,2.3323
16.0664,927,2.9903
16.0708,730,2.3548
16.0752,321,1.0355
16.0796,220,0.7097
16.0841,533,1.7194
16.0885,708,2.2839
16.0929,520,1.6774
16.0974,226,0.7290
16.1018,280,0.9032
16.1063,630,2.0323
16.1107,673,2.1710
16.1151,376,1.2129
16.1196,186,0.6000
16.1240,409,1.3194
16.1284,700,2.2581
16.1329,601,1.9387
16.1372,252,0.8129
16.1417,187,0.6032
16.1461,531,1.7129
16.1505,708,2.2839
16.1550,493,1.5903
16.1595,183,0.5903
16.1639,270,0.8710
16.1684,645,2.0806
16.1729,673,2.1710
16.1774,346,1.1161
16.1818,168,0.5419
16.1863,426,1.3742
16.1908,708,2.2839
16.1952,583,1.8806
16.1997,226,0.7290
16.2042,201,0.6484
16.2087,574,1.8516
16.2131,708,2.2839
16.2177,439,1.4161
16.2221,169,0.5452
16.2266,323,1.0419
16.2311,680,2.1935
16.2356,649,2.0935
16.2400,286,0.9226
16.2445,154,0.4968
16.2490,470,1.5161
16.2535,695,2.2419
16.2579,513,1.6548
16.2624,176,0.5677
16.2668,214,0.6903
16.2713,597,1.9258
16.2757,679,2.1903
16.2801,379,1.2226
16.2846,145,0.4677
16.2890,342,1.1032
16.2935,677,2.1839
16.2979,614,1.9806
16.3023,256,0.8258
16.3068,164,0.5290
16.3112,499,1.6097
16.3157,711,2.2935
16.3201,527,1.7000
16.3245,207,0.6677
16.3290,255,0.8226
16.3334,635,2.0484
16.3378,714,2.3032
16.3422,437,1.4097
16.3467,217,0.7000
16.3511,404,1.3032
16.3555,716,2.3097
16.3600,660,2.1290
16.3644,322,1.0387
16.3689,231,0.7452
16.3733,552,1.7806
16.3778,730,2.3548
16.3825,514,1.6581
16.3871,228,0.7355
16.3916,338,1.0903
16.3960,687,2.2161
16.4006,684,2.2065
16.4050,360,1.1613
16.4095,221,0.7129
16.4139,495,1.5968
16.4184,725,2.3387
16.4229,579,1.8677
16.4273,262,0.8452
16.4318,274,0.8839
16.4361,621,2.0032
16.4406,710,2.2903
16.4451,442,1.4258
16.4495,219,0.7065
16.4540,394,1.2710
16.4584,703,2.2677
16.4629,648,2.0903
16.4674,311,1.0032
16.4720,232,0.7484
16.4764,554,1.7871
16.4808,729,2.3516
16.4852,536,1.7290
16.4896,248,0.8000
16.4940,313,1.0097
16.4985,661,2.1323
16.5029,702,2.2645
16.5073,406,1.3097
16.5117,218,0.7032
16.5206,711,2.2935
16.5252,615,1.9839
16.5296,291,0.9387
16.5340,260,0.8387
16.5384,603,1.9452
16.5428,751,2.4226
16.5472,527,1.7000
16.5517,242,0.7806
16.5561,336,1.0839
16.5605,690,2.2258
16.5649,704,2.2710
16.5694,381,1.2290
16.5738,203,0.6548
16.5782,442,1.4258
16.5826,701,2.2613
16.5870,596,1.9226
16.5915,270,0.8710
16.5959,236,0.7613
16.6003,579,1.8677
16.6047,707,2.2806
16.6091,478,1.5419
16.6136,215,0.6935
16.6180,326,1.0516
16.6224,667,2.1516
16.6268,670,2.1613
16.6313,356,1.1484
16.6358,207,0.6677
16.6403,481,1.5516
16.6447,709,2.2871
16.6492,569,1.8355
16.6536,240,0.7742
16.6580,226,0.7290
16.6624,578,1.8645
16.6668,707,2.2806
16.6712,498,1.6065
16.6757,322,1.0387
16.6800,536,1.7290
16.6846,931,3.0032
16.6892,947,3.0548
16.6936,553,1.7839
16.6980,323,1.0419
16.7025,537,1.7323
16.7068,709,2.2871
16.7113,545,1.7581
16.7157,243,0.7839
16.7201,275,0.8871
16.7245,618,1.9935
16.7290,683,2.2032
16.7334,407,1.3129
16.7378,196,0.6323
16.7422,374,1.2065
16.7466,674,2.1742
16.7510,623,2.0097
16.7554,299,0.9645
16.7599,205,0.6613
16.7643,503,1.6226
16.7687,688,2.2194
16.7731,517,1.6677
16.7776,216,0.6968
16.7820,260,0.8387
16.7865,607,1.9581
16.7909,655,2.1129
16.7952,381,1.2290
16.7997,187,0.6032
16.8041,379,1.2226
16.8085,667,2.1516
16.8129,604,1.9484
16.8173,281,0.9065
16.8218,199,0.6419
16.8262,504,1.6258
16.8306,678,2.1871
16.8350,497,1.6032
16.8394,209,0.6742
16.8439,261,0.8419
16.8483,606,1.9548
16.8527,654,2.1097
16.8571,374,1.2065
16.8615,180,0.5806
16.8659,377,1.2161
16.8703,660,2.1290
16.8748,585,1.8871
16.8792,262,0.8452
16.8836,191,0.6161
16.8880,501,1.6161
16.8925,658,2.1226
16.8969,457,1.4742
16.9014,182,0.5871
16.9059,268,0.8645
16.9104,615,1.9839
16.9148,633,2.0419
16.9193,331,1.0677
16.9238,177,0.5710
16.9282,420,1.3548
16.9327,666,2.1484
16.9370,559,1.8032
16.9415,246,0.7935
16.9460,230,0.7419
16.9504,569,1.8355
16.9549,688,2.2194
16.9593,456,1.4710
16.9638,228,0.7355
16.9683,376,1.2129
16.9727,694,2.2387
16.9772,665,2.1452
16.9816,350,1.1290
16.9860,246,0.7935
16.9905,536,1.7290
16.9950,736,2.3742
16.9994,576,1.8581
17.0038,279,0.9000
17.0083,309,0.9968
17.0127,651,2.1000
17.0171,719,2.3194
17.0215,456,1.4710
17.0259,249,0.8032
17.0304,421,1.3581
17.0348,714,2.3032
17.0391,668,2.1548
17.0435,356,1.1484
17.0480,265,0.8548
17.0524,559,1.8032
17.0568,747,2.4097
17.0612,580,1.8710
17.0656,288,0.9290
17.0700,317,1.0226
17.0745,658,2.1226
17.0789,729,2.3516
17.0833,463,1.4935
17.0878,256,0.8258
17.0922,434,1.4000
17.0966,726,2.3419
17.1011,673,2.1710
17.1055,363,1.1710
17.1100,287,0.9258
17.1144,593,1.9129
17.1189,753,2.4290
17.1233,562,1.8129
17.1278,284,0.9161
17.1323,357,1.1516
17.1367,688,2.2194
17.1411,716,2.3097
17.1456,429,1.3839
17.1500,262,0.8452
17.1545,488,1.5742
17.1590,742,2.3935
17.1634,639,2.0613
17.1679,329,1.0613
17.1723,299,0.9645
17.1768,632,2.0387
17.1813,749,2.4161
17.1857,520,1.6774
17.1901,280,0.9032
17.1946,411,1.3258
17.1991,730,2.3548
17.2035,706,2.2774
17.2081,386,1.2452
17.2125,275,0.8871
17.2169,556,1.7935
17.2213,767,2.4742
17.2258,627,2.0226
17.2302,329,1.0613
17.2346,337,1.0871
17.2390,670,2.1613
17.2434,743,2.3968
17.2478,502,1.6194
17.2522,291,0.9387
17.2567,436,1.4065
17.2611,720,2.3226
17.2655,675,2.1774
17.2699,369,1.1903
17.2743,274,0.8839
17.2788,567,1.8290
17.2834,758,2.4452
17.2880,570,1.8387
17.2924,293,0.9452
17.2968,353,1.1387
17.3020,715,2.3065
17.3063,701,2.2613
17.3107,399,1.2871
17.3152,269,0.8677
17.3195,524,1.6903
17.3239,750,2.4194
17.3283,630,2.0323
17.3328,321,1.0355
17.3371,295,0.9516
17.3415,606,1.9548
17.3460,717,2.3129
17.3504,510,1.6452
17.3548,310,1.0000
17.3593,502,1.6194
17.3637,888,2.8645
17.3681,940,3.0323
17.3725,692,2.2323
17.3769,514,1.6581
17.3813,646,2.0839
17.3857,781,2.5194
17.3901,633,2.0419
17.3945,338,1.0903
17.3989,329,1.0613
17.4033,653,2.1065
17.4077,738,2.3806
17.4121,488,1.5742
17.4166,258,0.8323
17.4209,402,1.2968
17.4253,720,2.3226
17.4297,701,2.2613
17.4341,391,1.2613
17.4385,266,0.8581
17.4429,531,1.7129
17.4473,750,2.4194
17.4517,620,2.0000
17.4561,313,1.0097
17.4605,313,1.0097
17.4649,648,2.0903
17.4693,736,2.3742
17.4738,478,1.5419
17.4782,256,0.8258
17.4826,409,1.3194
17.4869,717,2.3129
17.4913,693,2.2355
17.4957,383,1.2355
17.5001,264,0.8516
17.5044,519,1.6742
17.5087,734,2.3677
17.5131,616,1.9871
17.5175,313,1.0097
17.5219,296,0.9548
17.5263,621,2.0032
17.5307,734,2.3677
17.5351,518,1.6710
17.5394,289,0.9323
17.5438,414,1.3355
17.5482,725,2.3387
17.5525,723,2.3323
17.5569,441,1.4226
17.5613,311,1.0032
17.5657,537,1.7323
17.5700,734,2.3677
17.5744,615,1.9839
17.5789,306,0.9871
17.5834,295,0.9516
17.5879,624,2.0129
17.5923,708,2.2839
17.5968,471,1.5194
17.6012,264,0.8516
17.6055,407,1.3129
17.6098,712,2.2968
17.6142,689,2.2226
17.6186,384,1.2387
17.6229,245,0.7903
17.6273,491,1.5839
17.6317,721,2.3258
17.6361,617,1.9903
17.6404,330,1.0645
17.6449,320,1.0323
17.6493,652,2.1032
17.6536,772,2.4903
17.6580,571,1.8419
17.6624,328,1.0581
17.6668,404,1.3032
17.6712,700,2.2581
17.6756,707,2.2806
17.6801,425,1.3710
17.6845,298,0.9613
17.6889,546,1.7613
17.6933,766,2.4710
17.6977,643,2.0742
17.7021,355,1.1452
17.7065,348,1.1226
17.7109,668,2.1548
17.7154,768,2.4774
17.7198,540,1.7419
17.7242,312,1.0065
17.7286,443,1.4290
17.7330,732,2.3613
17.7375,710,2.2903
17.7419,419,1.3516
17.7463,322,1.0387
17.7507,587,1.8935
17.7552,782,2.5226
17.7596,639,2.0613
17.7640,352,1.1355
17.7684,365,1.1774
17.7728,683,2.2032
17.7772,769,2.4806
17.7816,543,1.7516
17.7860,351,1.1323
17.7904,498,1.6065
17.7947,748,2.4129
17.7992,693,2.2355
17.8036,394,1.2710
17.8080,303,0.9774
17.8124,574,1.8516
17.8168,758,2.4452
17.8212,616,1.9871
17.8256,337,1.0871
17.8300,362,1.1677
17.8344,684,2.2065
17.8389,753,2.4290
17.8433,508,1.6387
17.8477,312,1.0065
17.8521,475,1.5323
17.8565,743,2.3968
17.8609,698,2.2516
17.8653,400,1.2903
17.8697,304,0.9806
17.8741,582,1.8774
17.8785,761,2.4548
17.8829,604,1.9484
17.8874,332,1.0710
17.8918,379,1.2226
17.8961,686,2.2129
17.9005,750,2.4194
17.9049,498,1.6065
17.9093,313,1.0097
17.9137,493,1.5903
17.9181,757,2.4419
17.9225,697,2.2484
17.9270,396,1.2774
17.9313,328,1.0581
17.9359,633,2.0419
17.9403,783,2.5258
17.9447,608,1.9613
17.9491,334,1.0774
17.9535,373,1.2032
17.9579,695,2.2419
17.9623,752,2.4258
17.9666,506,1.6323
17.9710,325,1.0484
17.9753,501,1.6161
17.9797,757,2.4419
17.9841,693,2.2355
17.9885,397,1.2806
17.9928,316,1.0194
17.9972,596,1.9226
18.0016,773,2.4935
18.0059,624,2.0129
18.0103,355,1.1452
18.0147,387,1.2484
18.0191,707,2.2806
18.0234,776,2.5032
18.0278,521,1.6806
18.0322,305,0.9839
18.0365,460,1.4839
18.0409,753,2.4290
18.0453,717,2.3129
18.0497,413,1.3323
18.0541,308,0.9935
18.0585,569,1.8355
18.0629,755,2.4355
18.0673,625,2.0161
18.0716,387,1.2484
18.0760,477,1.5387
18.0805,862,2.7806
18.0849,985,3.1774
18.0894,788,2.5419
18.0938,546,1.7613
18.0982,602,1.9419
18.1026,796,2.5677
18.1070,714,2.3032
18.1114,411,1.3258
18.1158,332,1.0710
18.1202,605,1.9516
18.1246,752,2.4258
18.1290,579,1.8677
18.1334,306,0.9871
18.1378,352,1.1355
18.1422,675,2.1774
18.1466,726,2.3419
18.1510,474,1.5290
18.1554,301,0.9710
18.1598,483,1.5581
18.1642,742,2.3935
18.1686,678,2.1871
18.1730,383,1.2355
18.1774,315,1.0161
18.1820,621,2.0032
18.1865,750,2.4194
18.1911,540,1.7419
18.1956,306,0.9871
18.2000,411,1.3258
18.2044,712,2.2968
18.2087,703,2.2677
18.2131,426,1.3742
18.2175,299,0.9645
18.2219,523,1.6871
18.2263,733,2.3645
18.2307,620,2.0000
18.2352,335,1.0806
18.2397,323,1.0419
18.2441,628,2.0258
18.2485,720,2.3226
18.2529,506,1.6323
18.2573,294,0.9484
18.2616,403,1.3000
18.2660,684,2.2065
18.2704,667,2.1516
18.2748,394,1.2710
18.2791,276,0.8903
18.2835,503,1.6226
18.2878,700,2.2581
18.2922,582,1.8774
18.2965,311,1.0032
18.3009,309,0.9968
18.3053,611,1.9710
18.3096,698,2.2516
18.3140,491,1.5839
18.3184,284,0.9161
18.3227,387,1.2484
18.3271,665,2.1452
18.3318,627,2.0226
18.3362,355,1.1452
18.3407,298,0.9613
18.3450,553,1.7839
18.3495,707,2.2806
18.3538,561,1.8097
18.3582,333,1.0742
18.3626,394,1.2710
18.3670,683,2.2032
18.3714,700,2.2581
18.3758,469,1.5129
18.3802,329,1.0613
18.3846,499,1.6097
18.3890,740,2.3871
18.3934,657,2.1194
18.3978,383,1.2355
18.4021,346,1.1161
18.4065,606,1.9548
18.4109,727,2.3452
18.4153,561,1.8097
18.4197,344,1.1097
18.4241,414,1.3355
18.4285,687,2.2161
18.4328,687,2.2161
18.4372,455,1.4677
18.4417,332,1.0710
18.4460,513,1.6548
18.4504,733,2.3645
18.4548,641,2.0677
18.4592,377,1.2161
18.4636,356,1.1484
18.4679,624,2.0129
18.4723,735,2.3710
18.4767,561,1.8097
18.4811,340,1.0968
18.4856,423,1.3645
18.4902,701,2.2613
18.4946,683,2.2032
18.4992,429,1.3839
18.5036,351,1.1323
18.5080,567,1.8290
18.5124,743,2.3968
18.5168,613,1.9774
18.5213,363,1.1710
18.5257,393,1.2677
18.5301,676,2.1806
18.5345,716,2.3097
18.5390,489,1.5774
18.5435,319,1.0290
18.5479,481,1.5516
18.5524,728,2.3484
18.5569,649,2.0935
18.5613,382,1.2323
18.5657,345,1.1129
18.5701,601,1.9387
18.5745,718,2.3161
18.5789,557,1.7968
18.5833,338,1.0903
18.5877,410,1.3226
18.5921,688,2.2194
18.5964,692,2.2323
18.6008,459,1.4806
18.6052,330,1.0645
18.6095,499,1.6097
18.6139,730,2.3548
18.6182,650,2.0968
18.6226,384,1.2387
18.6270,350,1.1290
18.6313,601,1.9387
18.6357,727,2.3452
18.6401,563,1.8161
18.6446,351,1.1323
18.6490,428,1.3806
18.6533,713,2.3000
18.6577,718,2.3161
18.6621,486,1.5677
18.6664,350,1.1290
18.6708,506,1.6323
18.6751,736,2.3742
18.6795,668,2.1548
18.6838,421,1.3581
18.6882,371,1.1968
18.6925,602,1.9419
18.6969,727,2.3452
18.7013,586,1.8903
18.7056,367,1.1839
18.7100,414,1.3355
18.7143,698,2.2516
18.7187,729,2.3516
18.7230,506,1.6323
18.7274,342,1.1032
18.7317,481,1.5516
18.7360,740,2.3871
18.7404,699,2.2548
18.7447,449,1.4484
18.7490,376,1.2129
18.7534,592,1.9097
18.7578,759,2.4484
18.7621,632,2.0387
18.7665,372,1.2000
18.7709,385,1.2419
18.7753,666,2.1484
18.7797,718,2.3161
18.7841,517,1.6677
18.7885,370,1.1935
18.7928,553,1.7839
18.7972,886,2.8581
18.8016,921,2.9710
18.8060,724,2.3355
18.8103,601,1.9387
18.8147,689,2.2226
18.8191,771,2.4871
18.8235,627,2.0226
18.8279,370,1.1935
18.8322,381,1.2290
18.8366,648,2.0903
18.8409,702,2.2645
18.8453,500,1.6129
18.8497,317,1.0226
18.8541,433,1.3968
18.8585,698,2.2516
18.8629,646,2.0839
18.8673,378,1.2194
18.8717,301,0.9710
18.8761,529,1.7065
18.8805,701,2.2613
18.8849,575,1.8548
18.8893,329,1.0613
18.8936,355,1.1452
18.8980,639,2.0613
18.9024,687,2.2161
18.9068,482,1.5548
18.9112,310,1.0000
18.9156,434,1.4000
18.9200,694,2.2387
18.9244,651,2.1000
18.9288,396,1.2774
18.9331,325,1.0484
18.9376,553,1.7839
18.9420,715,2.3065
18.9463,584,1.8839
18.9507,339,1.0935
18.9551,374,1.2065
18.9595,657,2.1194
18.9639,693,2.2355
18.9683,474,1.5290
18.9726,300,0.9677
18.9770,430,1.3871
18.9814,686,2.2129
18.9857,625,2.0161
18.9901,361,1.1645
18.9944,290,0.9355
18.9987,507,1.6355
19.0031,679,2.1903
19.0074,560,1.8065
19.0118,309,0.9968
19.0162,318,1.0258
19.0205,591,1.9065
19.0249,662,2.1355
19.0292,477,1.5387
19.0335,286,0.9226
19.0378,379,1.2226
19.0422,645,2.0806
19.0465,636,2.0516
19.0509,403,1.3000
19.0552,294,0.9484
19.0596,478,1.5419
19.0638,688,2.2194
19.0682,604,1.9484
19.0726,358,1.1548
19.0769,339,1.0935
19.0813,603,1.9452
19.0859,713,2.3000
19.0905,531,1.7129
19.0949,338,1.0903
19.0993,445,1.4355
19.1038,713,2.3000
19.1081,687,2.2161
19.1125,436,1.4065
19.1170,353,1.1387
19.1214,569,1.8355
19.1259,741,2.3903
19.1303,618,1.9935
19.1347,377,1.2161
19.1391,410,1.3226
19.1436,687,2.2161
19.1480,716,2.3097
19.1525,498,1.6065
19.1569,349,1.1258
19.1613,498,1.6065
19.1657,735,2.3710
19.1702,662,2.1355
19.1747,404,1.3032
19.1791,380,1.2258
19.1835,638,2.0581
19.1879,747,2.4097
19.1923,565,1.8226
19.1966,333,1.0742
19.2010,424,1.3677
19.2054,720,2.3226
19.2098,700,2.2581
19.2142,426,1.3742
19.2186,295,0.9516
19.2230,493,1.5903
19.2274,720,2.3226
19.2318,609,1.9645
19.2361,322,1.0387
19.2405,306,0.9871
19.2449,599,1.9323
19.2493,712,2.2968
19.2537,515,1.6613
19.2580,279,0.9000
19.2624,377,1.2161
19.2668,687,2.2161
19.2712,664,2.1419
19.2756,380,1.2258
19.2801,257,0.8290
19.2845,495,1.5968
19.2889,741,2.3903
19.2933,600,1.9355
19.2978,291,0.9387
19.3022,312,1.0065
19.3067,633,2.0419
19.3111,720,2.3226
19.3155,501,1.6161
19.3199,297,0.9581
19.3244,435,1.4032
19.3288,722,2.3290
19.3332,663,2.1387
19.3376,371,1.1968
19.3421,292,0.9419
19.3465,543,1.7516
19.3510,705,2.2742
19.3554,540,1.7419
19.3598,275,0.8871
19.3642,352,1.1355
19.3686,677,2.1839
19.3730,693,2.2355
19.3774,432,1.3935
19.3818,271,0.8742
19.3864,466,1.5032
19.3909,714,2.3032
19.3952,616,1.9871
19.3996,348,1.1226
19.4040,332,1.0710
19.4083,609,1.9645
19.4127,730,2.3548
19.4171,572,1.8452
19.4215,351,1.1323
19.4258,430,1.3871
19.4302,712,2.2968
19.4346,716,2.3097
19.4390,481,1.5516
19.4434,358,1.1548
19.4478,538,1.7355
19.4522,746,2.4065
19.4565,652,2.1032
19.4609,387,1.2484
19.4653,360,1.1613
19.4697,624,2.0129
19.4741,734,2.3677
19.4784,601,1.9387
19.4828,468,1.5097
19.4872,622,2.0065
19.4916,963,3.1065
19.4960,988,3.1871
19.5003,724,2.3355
19.5047,503,1.6226
19.5091,598,1.9290
19.5135,754,2.4323
19.5179,644,2.0774
19.5222,383,1.2355
19.5266,373,1.2032
19.5310,631,2.0355
19.5354,718,2.3161
19.5399,534,1.7226
19.5442,346,1.1161
19.5486,444,1.4323
19.5530,706,2.2774
19.5574,675,2.1774
19.5617,421,1.3581
19.5661,331,1.0677
19.5705,533,1.7194
19.5748,722,2.3290
19.5792,612,1.9742
19.5836,360,1.1613
19.5880,363,1.1710
19.5924,633,2.0419
19.5968,694,2.2387
19.6012,500,1.6129
19.6056,320,1.0323
19.6100,434,1.4000
19.6145,687,2.2161
19.6189,643,2.0742
19.6233,393,1.2677
19.6277,328,1.0581
19.6321,554,1.7871
19.6365,702,2.2645
19.6410,559,1.8032
19.6454,322,1.0387
19.6498,371,1.1968
19.6542,644,2.0774
19.6586,663,2.1387
19.6630,440,1.4194
19.6674,302,0.9742
19.6719,463,1.4935
19.6763,683,2.2032
19.6807,603,1.9452
19.6851,343,1.1065
19.6895,317,1.0226
19.6939,571,1.8419
19.6983,666,2.1484
19.7027,491,1.5839
19.7071,282,0.9097
19.7115,362,1.1677
19.7159,636,2.0516
19.7202,621,2.0032
19.7246,378,1.2194
19.7290,267,0.8613
19.7334,451,1.4548
19.7377,660,2.1290
19.7421,573,1.8484
19.7466,318,1.0258
19.7510,319,1.0290
19.7553,592,1.9097
19.7597,681,2.1968
19.7641,505,1.6290
19.7685,317,1.0226
19.7729,421,1.3581
19.7772,691,2.2290
19.7816,679,2.1903
19.7860,441,1.4226
19.7904,347,1.1194
19.7947,537,1.7323
19.7992,731,2.3581
19.8035,623,2.0097
19.8080,375,1.2097
19.8124,388,1.2516
19.8168,656,2.1161
19.8212,713,2.3000
19.8256,516,1.6645
19.8300,344,1.1097
19.8345,472,1.5226
19.8388,720,2.3226
19.8433,659,2.1258
19.8477,400,1.2903
19.8521,349,1.1258
19.8566,580,1.8710
19.8610,719,2.3194
19.8654,582,1.8774
19.8698,355,1.1452
19.8742,414,1.3355
19.8786,685,2.2097
19.8830,703,2.2677
19.8875,480,1.5484
19.8919,348,1.1226
19.8963,515,1.6613
19.9007,731,2.3581
19.9051,646,2.0839
19.9095,383,1.2355
19.9139,368,1.1871
19.9183,626,2.0194
19.9227,716,2.3097
19.9270,539,1.7387
19.9314,338,1.0903
19.9357,429,1.3839
19.9401,707,2.2806
19.9445,701,2.2613
19.9488,467,1.5065
19.9532,353,1.1387
19.9577,540,1.7419
19.9620,745,2.4032
19.9664,648,2.0903
19.9708,391,1.2613
19.9752,384,1.2387
19.9796,642,2.0710
19.9840,725,2.3387
19.9886,537,1.7323
19.9930,356,1.1484
19.9974,467,1.5065
20.0018,721,2.3258
20.0062,674,2.1742
20.0106,421,1.3581
20.0150,341,1.1000
20.0193,548,1.7677
20.0237,715,2.3065
20.0283,579,1.8677
20.0329,340,1.0968
20.0374,406,1.3097
20.0420,686,2.2129
20.0466,666,2.1484
20.0512,411,1.3258
20.0556,332,1.0710
20.0601,548,1.7677
20.0644,730,2.3548
20.0688,624,2.0129
20.0732,386,1.2452
20.0776,399,1.2871
20.0820,651,2.1000
20.0864,695,2.2419
20.0907,505,1.6290
20.0951,340,1.0968
20.0995,460,1.4839
20.1038,706,2.2774
20.1082,669,2.1581
20.1126,425,1.3710
20.1170,353,1.1387
20.1214,567,1.8290
20.1257,723,2.3323
20.1301,597,1.9258
20.1348,348,1.1226
20.1393,405,1.3065
20.1437,677,2.1839
20.1481,685,2.2097
20.1524,454,1.4645
20.1568,315,1.0161
20.1612,476,1.5355
20.1656,693,2.2355
20.1700,600,1.9355
20.1744,354,1.1419
20.1787,363,1.1710
20.1831,668,2.1548
20.1875,856,2.7613
20.1919,759,2.4484
20.1962,617,1.9903
20.2006,675,2.1774
20.2050,827,2.6677
20.2094,719,2.3194
20.2138,442,1.4258
20.2182,313,1.0097
20.2226,479,1.5452
20.2269,687,2.2161
20.2313,596,1.9226
20.2357,342,1.1032
20.2402,325,1.0484
20.2446,575,1.8548
20.2490,660,2.1290
20.2534,482,1.5548
20.2577,282,0.9097
20.2621,373,1.2032
20.2665,644,2.0774
20.2709,628,2.0258
20.2753,392,1.2645
20.2797,293,0.9452
20.2841,495,1.5968
20.2887,678,2.1871
20.2931,567,1.8290
20.2975,320,1.0323
20.3019,345,1.1129
20.3063,619,1.9968
20.3106,674,2.1742
20.3150,471,1.5194
20.3194,295,0.9516
20.3238,423,1.3645
20.3282,671,2.1645
20.3326,634,2.0452
20.3369,389,1.2548
20.3413,320,1.0323
20.3457,531,1.7129
20.3501,684,2.2065
20.3545,561,1.8097
20.3588,318,1.0258
20.3632,348,1.1226
20.3676,622,2.0065
20.3720,666,2.1484
20.3763,460,1.4839
20.3807,292,0.9419
20.3851,422,1.3613
20.3894,663,2.1387
20.3938,607,1.9581
20.3982,356,1.1484
20.4025,298,0.9613
20.4069,519,1.6742
20.4113,664,2.1419
20.4157,527,1.7000
20.4200,293,0.9452
20.4245,338,1.0903
20.4288,613,1.9774
20.4333,635,2.0484
20.4377,415,1.3387
20.4421,277,0.8935
20.4465,439,1.4161
20.4509,663,2.1387
20.4553,585,1.8871
20.4597,339,1.0935
20.4641,320,1.0323
20.4685,573,1.8484
20.4729,681,2.1968
20.4774,520,1.6774
20.4817,321,1.0355
20.4861,414,1.3355
20.4905,679,2.1903
20.4950,658,2.1226
20.4994,416,1.3419
20.5038,323,1.0419
20.5082,520,1.6774
20.5126,702,2.2645
20.5170,589,1.9000
20.5214,344,1.1097
20.5258,363,1.1710
20.5302,630,2.0323
20.5345,683,2.2032
20.5389,488,1.5742
20.5433,315,1.0161
20.5477,441,1.4226
20.5520,686,2.2129
20.5564,639,2.0613
20.5607,384,1.2387
20.5650,317,1.0226
20.5693,527,1.7000
20.5736,707,2.2806
20.5780,596,1.9226
20.5823,351,1.1323
20.5866,359,1.1581
20.5909,618,1.9935
20.5953,695,2.2419
20.5996,520,1.6774
20.6039,327,1.0548
20.6082,423,1.3645
20.6126,682,2.2000
20.6169,674,2.1742
20.6213,441,1.4226
20.6256,336,1.0839
20.6300,522,1.6839
20.6343,711,2.2935
20.6387,607,1.9581
20.6431,350,1.1290
20.6474,351,1.1323
20.6518,612,1.9742
20.6562,707,2.2806
20.6605,536,1.7290
20.6649,336,1.0839
20.6693,431,1.3903
20.6736,691,2.2290
20.6780,673,2.1710
20.6824,429,1.3839
20.6868,332,1.0710
20.6911,523,1.6871
20.6954,710,2.2903
20.6998,611,1.9710
20.7042,359,1.1581
20.7085,362,1.1677
20.7129,624,2.0129
20.7173,707,2.2806
20.7216,528,1.7032
20.7260,330,1.0645
20.7303,424,1.3677
20.7347,684,2.2065
20.7391,660,2.1290
20.7435,420,1.3548
20.7479,337,1.0871
20.7522,537,1.7323
20.7566,725,2.3387
20.7610,619,1.9968
20.7653,369,1.1903
20.7697,380,1.2258
20.7741,635,2.0484
20.7784,703,2.2677
20.7828,515,1.6613
20.7871,325,1.0484
20.7915,429,1.3839
20.7958,676,2.1806
20.8002,645,2.0806
20.8046,402,1.2968
20.8089,312,1.0065
20.8133,507,1.6355
20.8177,693,2.2355
20.8220,585,1.8871
20.8264,331,1.0677
20.8308,349,1.1258
20.8351,625,2.0161
20.8396,696,2.2452
20.8440,497,1.6032
20.8484,305,0.9839
20.8527,427,1.3774
20.8571,686,2.2129
20.8615,644,2.0774
20.8658,378,1.2194
20.8702,300,0.9677
20.8745,525,1.6935
20.8789,734,2.3677
20.8832,680,2.1935
20.8878,503,1.6226
20.8923,602,1.9419
20.8967,909,2.9323
20.9011,925,2.9839
20.9054,594,1.9161
20.9098,331,1.0677
20.9141,441,1.4226
20.9185,680,2.1935
20.9228,618,1.9935
20.9272,357,1.1516
20.9316,305,0.9839
20.9359,530,1.7097
20.9403,670,2.1613
20.9446,531,1.7129
20.9490,298,0.9613
20.9534,344,1.1097
20.9577,610,1.9677
20.9620,640,2.0645
20.9664,432,1.3935
20.9707,280,0.9032
20.9751,415,1.3387
20.9794,655,2.1129
20.9837,603,1.9452
20.9881,351,1.1323
20.9924,293,0.9452
20.9968,514,1.6581
21.0011,664,2.1419
21.0054,529,1.7065
21.0097,289,0.9323
21.0141,320,1.0323
21.0184,594,1.9161
21.0228,645,2.0806
21.0271,445,1.4355
21.0314,268,0.8645
21.0359,391,1.2613
21.0403,642,2.0710
21.0446,599,1.9323
21.0490,356,1.1484
21.0534,289,0.9323
21.0577,504,1.6258
21.0621,669,2.1581
21.0665,542,1.7484
21.0709,293,0.9452
21.0753,331,1.0677
21.0796,617,1.9903
21.0840,674,2.1742
21.0884,464,1.4968
21.0928,248,0.8000
21.0972,354,1.1419
21.1015,676,2.1806
21.1059,705,2.2742
21.1103,441,1.4226
21.1147,283,0.9129
21.1191,484,1.5613
21.1235,718,2.3161
21.1278,639,2.0613
21.1322,348,1.1226
21.1365,306,0.9871
21.1409,602,1.9419
21.1452,737,2.3774
21.1496,555,1.7903
21.1540,313,1.0097
21.1584,397,1.2806
21.1627,710,2.2903
21.1671,733,2.3645
21.1715,470,1.5161
21.1759,323,1.0419
21.1803,544,1.7548
21.1848,777,2.5065
21.1892,671,2.1645
21.1937,382,1.2323
21.1980,370,1.1935
21.2025,674,2.1742
21.2068,768,2.4774
21.2111,555,1.7903
21.2155,332,1.0710
21.2199,452,1.4581
21.2243,741,2.3903
21.2286,731,2.3581
21.2330,450,1.4516
21.2373,328,1.0581
21.2417,566,1.8258
21.2462,779,2.5129
21.2506,658,2.1226
21.2551,366,1.1806
21.2594,367,1.1839
21.2637,671,2.1645
21.2681,763,2.4613
21.2724,546,1.7613
21.2768,329,1.0613
21.2811,451,1.4548
21.2855,738,2.3806
21.2898,731,2.3581
21.2940,455,1.4677
21.2984,324,1.0452
21.3027,548,1.7677
21.3071,764,2.4645
21.3114,661,2.1323
21.3158,373,1.2032
21.3201,344,1.1097
21.3245,645,2.0806
21.3288,763,2.4613
21.3331,569,1.8355
21.3374,330,1.0645
21.3418,415,1.3387
21.3462,711,2.2935
21.3505,730,2.3548
21.3548,459,1.4806
21.3593,305,0.9839
21.3636,518,1.6710
21.3680,746,2.4065
21.3723,651,2.1000
21.3767,360,1.1613
21.3811,325,1.0484
21.3854,629,2.0290
21.3897,753,2.4290
21.3941,558,1.8000
21.3985,318,1.0258
21.4028,407,1.3129
21.4072,697,2.2484
21.4116,703,2.2677
21.4159,429,1.3839
21.4203,292,0.9419
21.4246,515,1.6613
21.4290,733,2.3645
21.4334,630,2.0323
21.4377,343,1.1065
21.4421,318,1.0258
21.4465,623,2.0097
21.4508,729,2.3516
21.4552,522,1.6839
21.4595,294,0.9484
21.4639,405,1.3065
21.4683,696,2.2452
21.4726,694,2.2387
21.4770,417,1.3452
21.4814,299,0.9645
21.4858,534,1.7226
21.4901,728,2.3484
21.4944,610,1.9677
21.4988,333,1.0742
21.5032,335,1.0806
21.5076,642,2.0710
21.5119,718,2.3161
21.5163,488,1.5742
21.5207,273,0.8806
21.5250,408,1.3161
21.5294,693,2.2355
21.5338,669,2.1581
21.5381,384,1.2387
21.5425,275,0.8871
21.5468,528,1.7032
21.5512,718,2.3161
21.5556,580,1.8710
21.5600,306,0.9871
21.5643,320,1.0323
21.5687,623,2.0097
21.5730,696,2.2452
21.5774,466,1.5032
21.5818,274,0.8839
21.5862,422,1.3613
21.5905,681,2.1968
21.5949,627,2.0226
21.5993,340,1.0968
21.6037,271,0.8742
21.6080,575,1.8548
21.6124,804,2.5935
21.6168,724,2.3355
21.6211,531,1.7129
21.6254,631,2.0355
21.6298,896,2.8903
21.6342,826,2.6645
21.6385,481,1.5516
21.6429,263,0.8484
21.6473,428,1.3806
21.6516,681,2.1968
21.6560,619,1.9968
21.6604,328,1.0581
21.6648,258,0.8323
21.6691,530,1.7097
21.6735,669,2.1581
21.6779,501,1.6161
21.6823,256,0.8258
21.6866,320,1.0323
21.6910,622,2.0065
21.6953,651,2.1000
21.6997,395,1.2742
21.7041,239,0.7710
21.7084,434,1.4000
21.7128,666,2.1484
21.7172,582,1.8774
21.7215,299,0.9645
21.7259,258,0.8323
21.7302,546,1.7613
21.7346,664,2.1419
21.7390,472,1.5226
21.7434,238,0.7677
21.7478,325,1.0484
21.7521,617,1.9903
21.7565,617,1.9903
21.7609,349,1.1258
21.7653,220,0.7097
21.7696,442,1.4258
21.7740,652,2.1032
21.7783,545,1.7581
21.7828,261,0.8419
21.7875,275,0.8871
21.7919,579,1.8677
21.7963,625,2.0161
21.8006,373,1.2032
21.8051,184,0.5935
21.8094,361,1.1645
21.8138,640,2.0645
21.8181,576,1.8581
21.8225,254,0.8194
21.8269,182,0.5871
21.8313,481,1.5516
21.8356,643,2.0742
21.8400,461,1.4871
21.8444,181,0.5839
21.8487,246,0.7935
21.8531,582,1.8774
21.8574,624,2.0129
21.8618,345,1.1129
21.8662,162,0.5226
21.8705,362,1.1677
21.8749,638,2.0581
21.8793,563,1.8161
21.8836,247,0.7968
21.8879,192,0.6194
21.8923,503,1.6226
21.8966,666,2.1484
21.9009,488,1.5742
21.9053,216,0.6968
21.9096,283,0.9129
21.9139,625,2.0161
21.9183,672,2.1677
21.9226,400,1.2903
21.9306,346,1.1161
21.9350,656,2.1161
21.9394,637,2.0548
21.9437,329,1.0613
21.9481,212,0.6839
21.9524,474,1.5290
21.9567,692,2.2323
21.9611,568,1.8323
21.9654,260,0.8387
21.9697,252,0.8129
21.9741,583,1.8806
21.9784,689,2.2226
21.9827,461,1.4871
21.9871,221,0.7129
21.9914,341,1.1000
21.9958,665,2.1452
22.0002,654,2.1097
22.0045,345,1.1129
22.0089,214,0.6903
22.0132,464,1.4968
22.0177,692,2.2323
22.0220,565,1.8226
22.0263,260,0.8387
22.0307,257,0.8290
22.0351,589,1.9000
22.0394,684,2.2065
22.0437,454,1.4645
22.0481,217,0.7000
22.0524,341,1.1000
22.0568,658,2.1226
22.0611,641,2.0677
22.0654,334,1.0774
22.0698,209,0.6742
22.0741,462,1.4903
22.0785,685,2.2097
22.0828,563,1.8161
22.0876,244,0.7871
22.0920,275,0.8871
22.0964,611,1.9710
22.1007,676,2.1806
22.1050,419,1.3516
22.1093,212,0.6839
22.1137,371,1.1968
22.1180,666,2.1484
22.1223,626,2.0194
22.1266,320,1.0323
22.1309,214,0.6903
22.1353,480,1.5484
22.1396,689,2.2226
22.1439,556,1.7935
22.1482,257,0.8290
22.1525,255,0.8226
22.1569,585,1.8871
22.1612,676,2.1806
22.1655,434,1.4000
22.1698,200,0.6452
22.1742,320,1.0323
22.1785,642,2.0710
22.1828,638,2.0581
22.1871,336,1.0839
22.1914,199,0.6419
22.1957,438,1.4129
22.2001,677,2.1839
22.2044,578,1.8645
22.2087,266,0.8581
22.2130,226,0.7290
22.2173,543,1.7516
22.2217,680,2.1935
22.2260,479,1.5452
22.2303,217,0.7000
22.2346,295,0.9516
22.2390,630,2.0323
22.2433,658,2.1226
22.2477,367,1.1839
22.2520,201,0.6484
22.2563,419,1.3516
22.2607,680,2.1935
22.2650,576,1.8581
22.2693,241,0.7774
22.2736,197,0.6355
22.2779,530,1.7097
22.2822,687,2.2161
22.2867,463,1.4935
22.2910,171,0.5516
22.2953,246,0.7935
22.2996,621,2.0032
22.3040,664,2.1419
22.3083,362,1.1677
22.3127,170,0.5484
22.3170,384,1.2387
22.3213,684,2.2065
22.3257,603,1.9452
22.3300,258,0.8323
22.3343,189,0.6097
22.3387,516,1.6645
22.3431,693,2.2355
22.3474,494,1.5935
22.3518,192,0.6194
22.3561,258,0.8323
22.3604,624,2.0129
22.3648,658,2.1226
22.3691,352,1.1355
22.3735,163,0.5258
22.3778,407,1.3129
22.3822,776,2.5032
22.3865,769,2.4806
22.3909,473,1.5258
22.3952,491,1.5839
22.3996,803,2.5903
22.4039,861,2.7774
22.4083,550,1.7742
22.4126,203,0.6548
22.4170,269,0.8677
22.4213,643,2.0742
22.4256,675,2.1774
22.4300,361,1.1645
22.4343,160,0.5161
22.4387,381,1.2290
22.4430,684,2.2065
22.4474,600,1.9355
22.4518,258,0.8323
22.4561,189,0.6097
22.4605,514,1.6581
22.4648,687,2.2161
22.4692,504,1.6258
22.4735,221,0.7129
22.4778,278,0.8968
22.4822,621,2.0032
22.4865,655,2.1129
22.4909,369,1.1903
22.4954,195,0.6290
22.4997,409,1.3194
22.5040,678,2.1871
22.5084,585,1.8871
22.5128,265,0.8548
22.5171,216,0.6968
22.5215,540,1.7419
22.5258,678,2.1871
22.5302,475,1.5323
22.5345,211,0.6806
22.5388,291,0.9387
22.5432,633,2.0419
22.5476,651,2.1000
22.5520,357,1.1516
22.5563,196,0.6323
22.5607,425,1.3710
22.5650,676,2.1806
22.5694,569,1.8355
22.5737,254,0.8194
22.5781,219,0.7065
22.5824,546,1.7613
22.5868,667,2.1516
22.5911,447,1.4419
22.5955,192,0.6194
22.5999,295,0.9516
22.6042,624,2.0129
22.6086,622,2.0065
22.6130,321,1.0355
22.6173,184,0.5935
22.6217,431,1.3903
22.6261,663,2.1387
22.6304,546,1.7613
22.6348,243,0.7839
22.6391,233,0.7516
22.6435,566,1.8258
22.6479,662,2.1355
22.6522,429,1.3839
22.6566,204,0.6581
22.6610,342,1.1032
22.6653,668,2.1548
22.6697,657,2.1194
22.6740,359,1.1581
22.6784,250,0.8065
22.6828,529,1.7065
22.6873,733,2.3645
22.6918,569,1.8355
22.6962,281,0.9065
22.7005,324,1.0452
22.7049,664,2.1419
22.7092,715,2.3065
22.7135,453,1.4613
22.7179,258,0.8323
22.7222,437,1.4097
22.7266,726,2.3419
22.7309,669,2.1581
22.7352,348,1.1226
22.7399,279,0.9000
22.7442,592,1.9097
22.7485,741,2.3903
22.7529,553,1.7839
22.7572,277,0.8935
22.7615,341,1.1000
22.7659,685,2.2097
22.7702,722,2.3290
22.7745,442,1.4258
22.7789,259,0.8355
22.7832,455,1.4677
22.7876,739,2.3839
22.7920,655,2.1129
22.7964,337,1.0871
22.8007,280,0.9032
22.8052,602,1.9419
22.8094,739,2.3839
22.8136,553,1.7839
22.8179,279,0.9000
22.8221,318,1.0258
22.8263,655,2.1129
22.8305,725,2.3387
22.8347,487,1.5710
22.8390,261,0.8419
22.8432,379,1.2226
22.8474,701,2.2613
22.8517,699,2.2548
22.8559,408,1.3161
22.8601,247,0.7968
22.8643,447,1.4419
22.8685,725,2.3387
22.8728,665,2.1452
22.8770,362,1.1677
22.8812,265,0.8548
22.8854,532,1.7161
22.8896,742,2.3935
22.8939,622,2.0065
22.8981,322,1.0387
22.9023,291,0.9387
22.9065,605,1.9516
22.9108,742,2.3935
22.9150,559,1.8032
22.9192,287,0.9258
22.9234,329,1.0613
22.9277,660,2.1290
22.9319,732,2.3613
22.9361,501,1.6161
22.9403,276,0.8903
22.9446,392,1.2645
22.9488,707,2.2806
22.9530,707,2.2806
22.9572,419,1.3516
22.9614,259,0.8355
22.9657,461,1.4871
22.9699,734,2.3677
22.9741,678,2.1871
22.9783,373,1.2032
22.9825,274,0.8839
22.9869,549,1.7710
22.9912,742,2.3935
22.9954,608,1.9613
22.9997,312,1.0065
23.0039,305,0.9839
23.0081,631,2.0355
23.0123,738,2.3806
23.0166,526,1.6968
23.0208,262,0.8452
23.0250,334,1.0774
23.0292,678,2.1871
23.0335,729,2.3516
23.0376,476,1.5355
23.0419,265,0.8548
23.0461,401,1.2935
23.0503,709,2.2871
23.0545,690,2.2258
23.0587,401,1.2935
23.0630,262,0.8452
23.0672,481,1.5516
23.0714,741,2.3903
23.0756,665,2.1452
23.0798,357,1.1516
23.0841,278,0.8968
23.0883,560,1.8065
23.0925,752,2.4258
23.0967,615,1.9839
23.1010,318,1.0258
23.1052,305,0.9839
23.1094,629,2.0290
23.1136,750,2.4194
23.1178,552,1.7806
23.1221,284,0.9161
23.1263,332,1.0710
23.1305,669,2.1581
23.1347,743,2.3968
23.1389,535,1.7258
23.1432,395,1.2742
23.1474,600,1.9355
23.1516,972,3.1355
23.1559,990,3.1935
23.1601,689,2.2226
23.1643,417,1.3452
23.1685,536,1.7290
23.1727,756,2.4387
23.1770,676,2.1806
23.1812,366,1.1806
23.1854,284,0.9161
23.1896,560,1.8065
23.1939,742,2.3935
23.1981,598,1.9290
23.2023,300,0.9677
23.2065,290,0.9355
23.2107,619,1.9968
23.2150,732,2.3613
23.2192,531,1.7129
23.2235,264,0.8516
23.2277,334,1.0774
23.2319,672,2.1677
23.2361,714,2.3032
23.2403,459,1.4806
23.2445,254,0.8194
23.2488,404,1.3032
23.2530,712,2.2968
23.2572,690,2.2258
23.2614,395,1.2742
23.2657,254,0.8194
23.2699,474,1.5290
23.2741,731,2.3581
23.2783,644,2.0774
23.2825,330,1.0645
23.2868,251,0.8097
23.2910,547,1.7645
23.2951,737,2.3774
23.2994,584,1.8839
23.3036,278,0.8968
23.3078,266,0.8581
23.3120,598,1.9290
23.3162,716,2.3097
23.3204,514,1.6581
23.3247,248,0.8000
23.3289,304,0.9806
23.3331,641,2.0677
23.3373,694,2.2387
23.3415,443,1.4290
23.3458,231,0.7452
23.3500,362,1.1677
23.3542,671,2.1645
23.3584,658,2.1226
23.3626,367,1.1839
23.3668,217,0.7000
23.3711,430,1.3871
23.3753,692,2.2323
23.3795,617,1.9903
23.3837,311,1.0032
23.3879,225,0.7258
23.3921,503,1.6226
23.3964,700,2.2581
23.4006,566,1.8258
23.4048,269,0.8677
23.4090,258,0.8323
23.4132,587,1.8935
23.4174,714,2.3032
23.4216,528,1.7032
23.4259,272,0.8774
23.4300,330,1.0645
23.4343,674,2.1742
23.4385,732,2.3613
23.4427,490,1.5806
23.4469,279,0.9000
23.4511,416,1.3419
23.4554,734,2.3677
23.4596,722,2.3290
23.4638,433,1.3968
23.4680,283,0.9129
23.4722,491,1.5839
23.4764,751,2.4226
23.4806,683,2.2032
23.4848,382,1.2323
23.4890,296,0.9548
23.4933,570,1.8387
23.4975,764,2.4645
23.5017,633,2.0419
23.5059,338,1.0903
23.5101,318,1.0258
23.5143,634,2.0452
23.5185,757,2.4419
23.5228,560,1.8065
23.5270,296,0.9548
23.5314,367,1.1839
23.5359,721,2.3258
23.5403,726,2.3419
23.5447,429,1.3839
23.5490,278,0.8968
23.5534,518,1.6710
23.5577,760,2.4516
23.5621,647,2.0871
23.5664,334,1.0774
23.5707,304,0.9806
23.5751,638,2.0581
23.5795,756,2.4387
23.5838,524,1.6903
23.5885,289,0.9323
23.5929,432,1.3935
23.5973,741,2.3903
23.6017,690,2.2258
23.6061,376,1.2129
23.6104,281,0.9065
23.6147,569,1.8355
23.6191,752,2.4258
23.6235,584,1.8839
23.6279,290,0.9355
23.6322,333,1.0742
23.6365,679,2.1903
23.6408,733,2.3645
23.6452,472,1.5226
23.6495,275,0.8871
23.6538,438,1.4129
23.6581,736,2.3742
23.6624,690,2.2258
23.6668,380,1.2258
23.6711,285,0.9194
23.6754,568,1.8323
23.6797,759,2.4484
23.6840,604,1.9484
23.6884,311,1.0032
23.6930,349,1.1258
23.6974,694,2.2387
23.7017,737,2.3774
23.7060,462,1.4903
23.7104,273,0.8806
23.7147,460,1.4839
23.7190,750,2.4194
23.7233,680,2.1935
23.7277,365,1.1774
23.7321,291,0.9387
23.7364,593,1.9129
23.7408,755,2.4355
23.7452,575,1.8548
23.7495,306,0.9871
23.7539,363,1.1710
23.7582,698,2.2516
23.7626,726,2.3419
23.7669,453,1.4613
23.7712,284,0.9161
23.7756,492,1.5871
23.7800,758,2.4452
23.7843,649,2.0935
23.7886,324,1.0452
23.7930,273,0.8806
23.7973,592,1.9097
23.8017,722,2.3290
23.8061,529,1.7065
23.8104,302,0.9742
23.8147,393,1.2677
23.8191,699,2.2548
23.8234,684,2.2065
23.8278,425,1.3710
23.8321,311,1.0032
23.8365,526,1.6968
23.8408,735,2.3710
23.8452,620,2.0000
23.8496,351,1.1323
23.8539,347,1.1194
23.8582,642,2.0710
23.8625,727,2.3452
23.8669,524,1.6903
23.8712,313,1.0097
23.8756,419,1.3516
23.8799,716,2.3097
23.8842,685,2.2097
23.8890,387,1.2484
23.8934,295,0.9516
23.8978,551,1.7774
23.9021,719,2.3194
23.9065,600,1.9355
23.9108,408,1.3161
23.9151,516,1.6645
23.9194,880,2.8387
23.9238,995,3.2097
23.9281,776,2.5032
23.9324,488,1.5742
23.9369,527,1.7000
23.9412,742,2.3935
23.9455,662,2.1355
23.9498,376,1.2129
23.9541,296,0.9548
23.9584,552,1.7806
23.9627,713,2.3000
23.9670,559,1.8032
23.9713,296,0.9548
23.9757,317,1.0226
23.9799,632,2.0387
23.9842,690,2.2258
23.9885,468,1.5097
23.9928,276,0.8903
23.9972,397,1.2806
24.0015,686,2.2129
24.0058,655,2.1129
24.0101,386,1.2452
24.0144,280,0.9032
24.0187,506,1.6323
24.0229,710,2.2903
24.0273,596,1.9226
24.0316,326,1.0516
24.0358,307,0.9903
24.0403,607,1.9581
24.0445,696,2.2452
24.0489,498,1.6065
24.0532,281,0.9065
24.0576,376,1.2129
24.0619,673,2.1710
24.0662,662,2.1355
24.0705,395,1.2742
24.0748,271,0.8742
24.0792,487,1.5710
24.0835,701,2.2613
24.0879,593,1.9129
24.0922,314,1.0129
24.0966,295,0.9516
24.1009,599,1.9323
24.1053,692,2.2323
24.1096,485,1.5645
24.1139,260,0.8387
24.1182,351,1.1323
24.1225,663,2.1387
24.1268,647,2.0871
24.1312,376,1.2129
24.1355,244,0.7871
24.1400,466,1.5032
24.1444,682,2.2000
24.1487,566,1.8258
24.1530,291,0.9387
24.1574,282,0.9097
24.1617,590,1.9032
24.1660,682,2.2000
24.1704,472,1.5226
24.1747,256,0.8258
24.1790,368,1.1871
24.1834,680,2.1935
24.1877,661,2.1323
24.1920,399,1.2871
24.1963,290,0.9355
24.2007,520,1.6774
24.2050,739,2.3839
24.2094,623,2.0097
24.2137,348,1.1226
24.2180,340,1.0968
24.2224,652,2.1032
24.2267,748,2.4129
24.2310,541,1.7452
24.2353,318,1.0258
24.2396,422,1.3613
24.2440,732,2.3613
24.2485,709,2.2871
24.2528,432,1.3935
24.2571,319,1.0290
24.2614,548,1.7677
24.2658,755,2.4355
24.2701,640,2.0645
24.2744,363,1.1710
24.2787,352,1.1355
24.2831,661,2.1323
24.2874,751,2.4226
24.2917,543,1.7516
24.2960,323,1.0419
24.3003,423,1.3645
24.3047,737,2.3774
24.3091,714,2.3032
24.3134,435,1.4032
24.3177,315,1.0161
24.3221,543,1.7516
24.3264,760,2.4516
24.3307,639,2.0613
24.3351,358,1.1548
24.3394,346,1.1161
24.3438,660,2.1290
24.3481,748,2.4129
24.3525,530,1.7097
24.3568,314,1.0129
24.3611,428,1.3806
24.3655,741,2.3903
24.3698,707,2.2806
24.3742,430,1.3871
24.3785,315,1.0161
24.3828,551,1.7774
24.3872,761,2.4548
24.3915,635,2.0484
24.3958,357,1.1516
24.4001,348,1.1226
24.4044,656,2.1161
24.4088,742,2.3935
24.4131,530,1.7097
24.4174,312,1.0065
24.4218,417,1.3452
24.4261,717,2.3129
24.4304,699,2.2548
24.4347,428,1.3806
24.4390,311,1.0032
24.4434,539,1.7387
24.4477,749,2.4161
24.4521,629,2.0290
24.4564,352,1.1355
24.4607,348,1.1226
24.4651,656,2.1161
24.4694,745,2.4032
24.4737,533,1.7194
24.4780,314,1.0129
24.4825,434,1.4000
24.4869,732,2.3613
24.4913,685,2.2097
24.4958,389,1.2548
24.5001,299,0.9645
24.5044,567,1.8290
24.5088,754,2.4323
24.5131,612,1.9742
24.5176,339,1.0935
24.5219,364,1.1742
24.5262,678,2.1871
24.5305,720,2.3226
24.5349,482,1.5548
24.5392,308,0.9935
24.5435,467,1.5065
24.5478,744,2.4000
24.5522,682,2.2000
24.5565,397,1.2806
24.5609,324,1.0452
24.5652,596,1.9226
24.5695,762,2.4581
24.5738,602,1.9419
24.5781,336,1.0839
24.5824,368,1.1871
24.5868,691,2.2290
24.5911,742,2.3935
24.5954,506,1.6323
24.5997,315,1.0161
24.6040,443,1.4290
24.6083,723,2.3323
24.6126,686,2.2129
24.6169,433,1.3968
24.6212,399,1.2871
24.6255,721,2.3258
24.6298,974,3.1419
24.6341,921,2.9710
24.6384,658,2.1226
24.6427,580,1.8710
24.6470,783,2.5258
24.6513,796,2.5677
24.6556,547,1.7645
24.6600,321,1.0355
24.6643,429,1.3839
24.6687,728,2.3484
24.6730,687,2.2161
24.6774,398,1.2839
24.6817,290,0.9355
24.6860,548,1.7677
24.6903,751,2.4226
24.6947,608,1.9613
24.6990,320,1.0323
24.7034,326,1.0516
24.7077,650,2.0968
24.7120,724,2.3355
24.7164,499,1.6097
24.7207,294,0.9484
24.7250,416,1.3419
24.7294,712,2.2968
24.7337,670,2.1613
24.7380,387,1.2484
24.7424,289,0.9323
24.7468,543,1.7516
24.7511,731,2.3581
24.7555,589,1.9000
24.7598,316,1.0194
24.7642,335,1.0806
24.7685,650,2.0968
24.7729,701,2.2613
24.7773,467,1.5065
24.7816,283,0.9129
24.7860,439,1.4161
24.7905,716,2.3097
24.7949,631,2.0355
24.7992,333,1.0742
24.8036,279,0.9000
24.8079,569,1.8355
24.8122,707,2.2806
24.8166,522,1.6839
24.8210,269,0.8677
24.8253,329,1.0613
24.8296,651,2.1000
24.8340,667,2.1516
24.8383,410,1.3226
24.8426,251,0.8097
24.8470,441,1.4226
24.8514,691,2.2290
24.8557,603,1.9452
24.8600,315,1.0161
24.8644,272,0.8774
24.8687,570,1.8387
24.8730,696,2.2452
24.8773,514,1.6581
24.8816,273,0.8806
24.8860,339,1.0935
24.8903,660,2.1290
24.8946,677,2.1839
24.8989,431,1.3903
24.9032,283,0.9129
24.9075,476,1.5355
24.9118,736,2.3742
24.9161,669,2.1581
24.9205,393,1.2677
24.9248,341,1.1000
24.9291,615,1.9839
24.9334,761,2.4548
24.9377,597,1.9258
24.9421,341,1.1000
24.9464,395,1.2742
24.9507,711,2.2935
24.9551,741,2.3903
24.9594,493,1.5903
24.9637,327,1.0548
24.9681,503,1.6226
24.9724,759,2.4484
24.9767,683,2.2032
24.9810,396,1.2774
24.9854,339,1.0935
24.9897,619,1.9968
24.9941,762,2.4581
24.9984,589,1.9000
25.0028,336,1.0839
25.0071,399,1.2871
25.0115,721,2.3258
25.0158,740,2.3871
25.0202,481,1.5516
25.0245,329,1.0613
25.0290,529,1.7065
25.0335,762,2.4581
25.0380,641,2.0677
25.0425,356,1.1484
25.0471,381,1.2290
25.0518,715,2.3065
25.0564,724,2.3355
25.0616,408,1.3161
25.0665,344,1.1097
25.0709,642,2.0710
25.0752,755,2.4355
25.0795,559,1.8032
25.0839,324,1.0452
25.0882,406,1.3097
25.0926,725,2.3387
25.0969,714,2.3032
25.1012,447,1.4419
25.1056,314,1.0129
25.1099,525,1.6935
25.1143,755,2.4355
25.1186,645,2.0806
25.1230,366,1.1806
25.1278,362,1.1677
25.1321,675,2.1774
25.1364,739,2.3839
25.1408,513,1.6548
25.1451,320,1.0323
25.1494,456,1.4710
25.1538,742,2.3935
25.1581,694,2.2387
25.1625,414,1.3355
25.1669,326,1.0516
25.1712,583,1.8806
25.1756,757,2.4419
25.1799,606,1.9548
25.1842,337,1.0871
25.1891,400,1.2903
25.1935,724,2.3355
25.1978,716,2.3097
25.2021,431,1.3903
25.2065,285,0.9194
25.2108,501,1.6161
25.2152,757,2.4419
25.2195,655,2.1129
25.2239,358,1.1548
25.2282,324,1.0452
25.2325,619,1.9968
25.2369,729,2.3516
25.2412,537,1.7323
25.2456,312,1.0065
25.2505,445,1.4355
25.2548,736,2.3742
25.2592,687,2.2161
25.2635,404,1.3032
25.2679,318,1.0258
25.2722,577,1.8613
25.2766,749,2.4161
25.2809,602,1.9419
25.2853,331,1.0677
25.2896,366,1.1806
25.2939,712,2.2968
25.2983,752,2.4258
25.3026,478,1.5419
25.3069,269,0.8677
25.3118,487,1.5710
25.3161,771,2.4871
25.3205,675,2.1774
25.3248,411,1.3258
25.3292,454,1.4645
25.3335,837,2.7000
25.3379,1000,3.2258
25.3422,835,2.6935
25.3465,487,1.5710
25.3509,461,1.4871
25.3552,749,2.4161
25.3596,727,2.3452
25.3639,423,1.3645
25.3682,274,0.8839
25.3727,521,1.6806
25.3771,755,2.4355
25.3814,607,1.9581
25.3870,263,0.8484
25.3915,383,1.2355
25.3959,719,2.3194
25.4002,688,2.2194
25.4051,341,1.1000
25.4094,270,0.8710
25.4137,569,1.8355
25.4180,747,2.4097
25.4223,571,1.8419
25.4266,278,0.8968
25.4309,315,1.0161
25.4352,673,2.1710
25.4395,726,2.3419
25.4438,458,1.4774
25.4482,250,0.8065
25.4525,411,1.3258
25.4568,726,2.3419
25.4611,665,2.1452
25.4654,352,1.1355
25.4697,256,0.8258
25.4740,540,1.7419
25.4790,736,2.3742
25.4834,527,1.7000
25.4877,261,0.8419
25.4920,332,1.0710
25.4963,660,2.1290
25.5006,686,2.2129
25.5048,432,1.3935
25.5091,268,0.8645
25.5134,442,1.4258
25.5177,698,2.2516
25.5220,625,2.0161
25.5263,337,1.0871
25.5307,275,0.8871
25.5349,550,1.7742
25.5392,703,2.2677
25.5435,535,1.7258
25.5478,270,0.8710
25.5521,304,0.9806
25.5564,619,1.9968
25.5607,667,2.1516
25.5650,436,1.4065
25.5693,257,0.8290
25.5736,403,1.3000
25.5779,688,2.2194
25.5822,627,2.0226
25.5865,338,1.0903
25.5908,254,0.8194
25.5951,520,1.6774
25.5994,716,2.3097
25.6037,582,1.8774
25.6080,315,1.0161
25.6123,331,1.0677
25.6166,650,2.0968
25.6209,727,2.3452
25.6252,512,1.6516
25.6295,310,1.0000
25.6338,429,1.3839
25.6381,725,2.3387
25.6424,695,2.2419
25.6467,423,1.3645
25.6510,313,1.0097
25.6554,539,1.7387
25.6597,747,2.4097
25.6640,624,2.0129
25.6683,353,1.1387
25.6726,340,1.0968
25.6769,642,2.0710
25.6812,735,2.3710
25.6874,398,1.2839
25.6919,318,1.0258
25.6963,589,1.9000
25.7007,740,2.3871
25.7052,566,1.8258
25.7095,321,1.0355
25.7138,377,1.2161
25.7181,684,2.2065
25.7225,707,2.2806
25.7268,461,1.4871
25.7311,308,0.9935
25.7355,488,1.5742
25.7398,736,2.3742
25.7441,657,2.1194
25.7485,375,1.2097
25.7528,325,1.0484
25.7571,610,1.9677
25.7615,735,2.3710
25.7658,550,1.7742
25.7702,307,0.9903
25.7745,380,1.2258
25.7789,690,2.2258
25.7833,689,2.2226
25.7877,426,1.3742
25.7920,298,0.9613
25.7963,504,1.6258
25.8006,732,2.3613
25.8049,631,2.0355
25.8092,352,1.1355
25.8135,316,1.0194
25.8178,604,1.9484
25.8221,722,2.3290
25.8264,541,1.7452
25.8307,304,0.9806
25.8350,367,1.1839
25.8393,683,2.2032
25.8436,695,2.2419
25.8479,439,1.4161
25.8522,286,0.9226
25.8565,468,1.5097
25.8608,723,2.3323
25.8651,644,2.0774
25.8695,354,1.1419
25.8738,303,0.9774
25.8781,592,1.9097
25.8824,742,2.3935
25.8868,569,1.8355
25.8912,325,1.0484
25.8956,389,1.2548
25.8999,699,2.2548
25.9042,710,2.2903
25.9085,448,1.4452
25.9128,291,0.9387
25.9171,473,1.5258
25.9215,713,2.3000
25.9258,630,2.0323
25.9301,349,1.1258
25.9345,305,0.9839
25.9388,590,1.9032
25.9431,714,2.3032
25.9475,530,1.7097
25.9519,293,0.9452
25.9562,366,1.1806
25.9606,677,2.1839
25.9649,679,2.1903
25.9693,410,1.3226
25.9736,276,0.8903
25.9779,482,1.5548
25.9823,708,2.2839
25.9868,595,1.9194
25.9911,307,0.9903
25.9954,285,0.9194
25.9997,601,1.9387
26.0040,723,2.3323
26.0083,561,1.8097
26.0126,373,1.2032
26.0169,519,1.6742
26.0212,928,2.9935
26.0255,985,3.1774
26.0298,659,2.1258
26.0341,364,1.1742
26.0385,494,1.5935
26.0428,741,2.3903
26.0471,651,2.1000
26.0514,323,1.0419
26.0557,249,0.8032
26.0600,556,1.7935
26.0643,712,2.2968
26.0686,534,1.7226
26.0729,249,0.8032
26.0772,297,0.9581
26.0815,641,2.0677
26.0858,688,2.2194
26.0902,415,1.3387
26.0945,225,0.7258
26.0988,415,1.3387
26.1032,701,2.2613
26.1075,624,2.0129
26.1119,305,0.9839
26.1162,235,0.7581
26.1206,553,1.7839
26.1249,711,2.2935
26.1292,518,1.6710
26.1336,241,0.7774
26.1379,304,0.9806
26.1422,663,2.1387
26.1466,680,2.1935
26.1509,384,1.2387
26.1552,207,0.6677
26.1596,422,1.3613
26.1639,701,2.2613
26.1682,606,1.9548
26.1726,283,0.9129
26.1769,228,0.7355
26.1812,555,1.7903
26.1856,703,2.2677
26.1899,506,1.6323
26.1943,230,0.7419
26.1986,307,0.9903
26.2029,649,2.0935
26.2073,663,2.1387
26.2116,371,1.1968
26.2160,208,0.6710
26.2203,433,1.3968
26.2246,694,2.2387
26.2290,585,1.8871
26.2333,259,0.8355
26.2377,226,0.7290
26.2421,572,1.8452
26.2465,687,2.2161
26.2508,455,1.4677
26.2551,206,0.6645
26.2595,319,1.0290
26.2638,662,2.1355
26.2682,649,2.0935
26.2725,342,1.1032
26.2768,209,0.6742
26.2812,478,1.5419
26.2855,719,2.3194
26.2921,411,1.3258
26.2966,238,0.7677
26.3009,467,1.5065
26.3052,746,2.4065
26.3095,652,2.1032
26.3138,332,1.0710
26.3181,275,0.8871
26.3225,606,1.9548
26.3269,754,2.4323
26.3312,549,1.7710
26.3355,277,0.8935
26.3400,363,1.1710
26.3443,708,2.2839
26.3485,718,2.3161
26.3528,423,1.3645
26.3571,257,0.8290
26.3614,473,1.5258
26.3657,742,2.3935
26.3700,661,2.1323
26.3744,343,1.1065
26.3786,284,0.9161
26.3829,607,1.9581
26.3872,757,2.4419
26.3915,563,1.8161
26.3958,283,0.9129
26.4002,347,1.1194
26.4045,698,2.2516
26.4088,731,2.3581
26.4132,446,1.4387
26.4175,269,0.8677
26.4219,475,1.5323
26.4262,747,2.4097
26.4305,657,2.1194
26.4349,340,1.0968
26.4392,290,0.9355
26.4435,612,1.9742
26.4479,749,2.4161
26.4522,546,1.7613
26.4565,279,0.9000
26.4609,361,1.1645
26.4652,719,2.3194
26.4695,723,2.3323
26.4739,417,1.3452
26.4782,256,0.8258
26.4825,488,1.5742
26.4868,751,2.4226
26.4911,648,2.0903
26.4955,329,1.0613
26.4998,289,0.9323
26.5042,623,2.0097
26.5085,749,2.4161
26.5128,537,1.7323
26.5171,279,0.9000
26.5214,378,1.2194
26.5258,732,2.3613
26.5301,739,2.3839
26.5345,441,1.4226
26.5388,291,0.9387
26.5431,526,1.6968
26.5474,777,2.5065
26.5518,667,2.1516
26.5561,341,1.1000
26.5604,310,1.0000
26.5648,661,2.1323
26.5691,764,2.4645
26.5734,519,1.6742
26.5778,255,0.8226
26.5821,364,1.1742
26.5878,742,2.3935
26.5925,588,1.8968
26.5970,279,0.9000
