time_s,adc_raw,voltage
0.0000,480,1.5484
0.0044,511,1.6484
0.0088,545,1.7581
0.0131,539,1.7387
0.0175,521,1.6806
0.0219,544,1.7548
0.0294,584,1.8839
0.0361,517,1.6677
0.0405,498,1.6065
0.0449,537,1.7323
0.0492,563,1.8161
0.0640,522,1.6839
0.0683,555,1.7903
0.0727,535,1.7258
0.0770,484,1.5613
0.0813,480,1.5484
0.0855,523,1.6871
0.0898,546,1.7613
0.0939,518,1.6710
0.0981,482,1.5548
0.1023,490,1.5806
0.1065,528,1.7032
0.1108,536,1.7290
0.1149,504,1.6258
0.1191,483,1.5581
0.1233,492,1.5871
0.1275,490,1.5806
0.1317,445,1.4355
0.1358,382,1.2323
0.1400,361,1.1645
0.1442,439,1.4161
0.1485,620,2.0000
0.1530,817,2.6355
0.1575,998,3.2194
0.1618,1003,3.2355
0.1660,1003,3.2355
0.1702,1004,3.2387
0.1746,1003,3.2355
0.1793,940,3.0323
0.1837,715,2.3065
0.1889,553,1.7839
0.1935,466,1.5032
0.1994,417,1.3452
0.2041,452,1.4581
0.2088,485,1.5645
0.2134,459,1.4806
0.2177,420,1.3548
0.2220,433,1.3968
0.2264,476,1.5355
0.2313,481,1.5516
0.2357,440,1.4194
0.2400,431,1.3903
0.2442,457,1.4742
0.2484,482,1.5548
0.2526,463,1.4935
0.2568,427,1.3774
0.2609,429,1.3839
0.2651,473,1.5258
0.2693,498,1.6065
0.2734,471,1.5194
0.2776,434,1.4000
0.2818,444,1.4323
0.2860,488,1.5742
0.2901,508,1.6387
0.2943,484,1.5613
0.2985,458,1.4774
0.3027,476,1.5355
0.3068,513,1.6548
0.3110,515,1.6613
0.3152,482,1.5548
0.3194,468,1.5097
0.3235,502,1.6194
0.3277,540,1.7419
0.3319,534,1.7226
0.3360,497,1.6032
0.3402,490,1.5806
0.3444,527,1.7000
0.3485,563,1.8161
0.3527,554,1.7871
0.3569,524,1.6903
0.3612,530,1.7097
0.3654,576,1.8581
0.3696,603,1.9452
0.3738,583,1.8806
0.3780,556,1.7935
0.3822,569,1.8355
0.3863,609,1.9645
0.3905,623,2.0097
0.3947,588,1.8968
0.3989,564,1.8194
0.4030,583,1.8806
0.4072,612,1.9742
0.4114,598,1.9290
0.4156,546,1.7613
0.4198,521,1.6806
0.4239,539,1.7387
0.4281,563,1.8161
0.4322,543,1.7516
0.4364,496,1.6000
0.4406,479,1.5452
0.4448,502,1.6194
0.4491,513,1.6548
0.4534,482,1.5548
0.4576,445,1.4355
0.4618,450,1.4516
0.4660,485,1.5645
0.4701,492,1.5871
0.4743,458,1.4774
0.4785,433,1.3968
0.4826,454,1.4645
0.4868,489,1.5774
0.4910,485,1.5645
0.4951,447,1.4419
0.4993,432,1.3935
0.5035,463,1.4935
0.5077,498,1.6065
0.5118,487,1.5710
0.5162,446,1.4387
0.5204,440,1.4194
0.5246,480,1.5484
0.5288,509,1.6419
0.5329,489,1.5774
0.5371,453,1.4613
0.5413,457,1.4742
0.5454,494,1.5935
0.5496,507,1.6355
0.5538,480,1.5484
0.5580,452,1.4581
0.5622,467,1.5065
0.5663,509,1.6419
0.5705,516,1.6645
0.5746,478,1.5419
0.5788,449,1.4484
0.5830,472,1.5226
0.5872,511,1.6484
0.5913,508,1.6387
0.5955,468,1.5097
0.5997,455,1.4677
0.6038,490,1.5806
0.6080,527,1.7000
0.6122,514,1.6581
0.6163,472,1.5226
0.6205,465,1.5000
0.6247,500,1.6129
0.6289,521,1.6806
0.6330,496,1.6000
0.6372,463,1.4935
0.6414,469,1.5129
0.6456,508,1.6387
0.6497,525,1.6935
0.6539,498,1.6065
0.6584,470,1.5161
0.6626,484,1.5613
0.6668,516,1.6645
0.6709,518,1.6710
0.6751,484,1.5613
0.6793,466,1.5032
0.6834,494,1.5935
0.6876,528,1.7032
0.6918,517,1.6677
0.6959,476,1.5355
0.7001,464,1.4968
0.7043,500,1.6129
0.7085,527,1.7000
0.7126,510,1.6452
0.7168,479,1.5452
0.7210,481,1.5516
0.7251,515,1.6613
0.7293,530,1.7097
0.7335,504,1.6258
0.7376,479,1.5452
0.7418,495,1.5968
0.7460,534,1.7226
0.7502,542,1.7484
0.7543,507,1.6355
0.7585,484,1.5613
0.7627,512,1.6516
0.7669,560,1.8065
0.7711,579,1.8677
0.7752,554,1.7871
0.7794,534,1.7226
0.7835,552,1.7806
0.7877,573,1.8484
0.7919,552,1.7806
0.7961,508,1.6387
0.8003,503,1.6226
0.8044,535,1.7258
0.8086,551,1.7774
0.8128,522,1.6839
0.8170,484,1.5613
0.8211,487,1.5710
0.8253,523,1.6871
0.8295,534,1.7226
0.8336,503,1.6226
0.8378,471,1.5194
0.8420,488,1.5742
0.8462,526,1.6968
0.8504,530,1.7097
0.8546,496,1.6000
0.8589,477,1.5387
0.8632,503,1.6226
0.8675,531,1.7129
0.8717,511,1.6484
0.8760,458,1.4774
0.8803,424,1.3677
0.8845,428,1.3806
0.8888,423,1.3645
0.8930,397,1.2806
0.8973,427,1.3774
0.9019,616,1.9871
0.9062,842,2.7161
0.9105,1001,3.2290
0.9148,1004,3.2387
0.9190,1005,3.2419
0.9233,1003,3.2355
0.9276,997,3.2161
0.9319,878,2.8323
0.9361,629,2.0290
0.9404,487,1.5710
0.9446,469,1.5129
0.9490,478,1.5419
0.9535,450,1.4516
0.9578,423,1.3645
0.9620,437,1.4097
0.9663,473,1.5258
0.9706,468,1.5097
0.9748,428,1.3806
0.9791,415,1.3387
0.9835,449,1.4484
0.9878,480,1.5484
0.9920,466,1.5032
0.9963,430,1.3871
1.0006,433,1.3968
1.0048,476,1.5355
1.0091,493,1.5903
1.0134,462,1.4903
1.0177,436,1.4065
1.0219,458,1.4774
1.0262,501,1.6161
1.0305,508,1.6387
1.0348,473,1.5258
1.0390,458,1.4774
1.0433,490,1.5806
1.0477,521,1.6806
1.0521,501,1.6161
1.0565,463,1.4935
1.0609,472,1.5226
1.0654,520,1.6774
1.0698,531,1.7129
1.0741,495,1.5968
1.0783,473,1.5258
1.0826,503,1.6226
1.0868,546,1.7613
1.0912,547,1.7645
1.0954,514,1.6581
1.0997,511,1.6484
1.1039,550,1.7742
1.1082,577,1.8613
1.1125,558,1.8000
1.1168,530,1.7097
1.1211,547,1.7645
1.1253,592,1.9097
1.1296,607,1.9581
1.1339,572,1.8452
1.1382,548,1.7677
1.1425,572,1.8452
1.1471,612,1.9742
1.1514,604,1.9484
1.1557,557,1.7968
1.1600,543,1.7516
1.1642,571,1.8419
1.1685,584,1.8839
1.1728,544,1.7548
1.1771,498,1.6065
1.1814,495,1.5968
1.1856,526,1.6968
1.1899,526,1.6968
1.1942,484,1.5613
1.1985,459,1.4806
1.2027,482,1.5548
1.2070,510,1.6452
1.2113,495,1.5968
1.2156,453,1.4613
1.2199,446,1.4387
1.2241,482,1.5548
1.2286,507,1.6355
1.2329,481,1.5516
1.2372,447,1.4419
1.2414,459,1.4806
1.2457,496,1.6000
1.2500,498,1.6065
1.2543,460,1.4839
1.2586,442,1.4258
1.2629,471,1.5194
1.2672,508,1.6387
1.2715,498,1.6065
1.2758,458,1.4774
1.2800,455,1.4677
1.2843,493,1.5903
1.2886,513,1.6548
1.2928,486,1.5677
1.2971,454,1.4645
1.3014,470,1.5161
1.3057,512,1.6516
1.3103,517,1.6677
1.3146,480,1.5484
1.3189,463,1.4935
1.3232,498,1.6065
1.3275,528,1.7032
1.3317,506,1.6323
1.3360,464,1.4968
1.3403,467,1.5065
1.3446,511,1.6484
1.3490,529,1.7065
1.3533,494,1.5935
1.3577,467,1.5065
1.3620,487,1.5710
1.3663,521,1.6806
1.3706,518,1.6710
1.3748,478,1.5419
1.3791,467,1.5065
1.3834,504,1.6258
1.3877,533,1.7194
1.3921,512,1.6516
1.3964,476,1.5355
1.4007,484,1.5613
1.4049,524,1.6903
1.4092,532,1.7161
1.4135,497,1.6032
1.4178,470,1.5161
1.4221,493,1.5903
1.4264,530,1.7097
1.4306,526,1.6968
1.4349,486,1.5677
1.4392,473,1.5258
1.4435,506,1.6323
1.4477,534,1.7226
1.4520,514,1.6581
1.4563,476,1.5355
1.4606,480,1.5484
1.4649,520,1.6774
1.4692,532,1.7161
1.4736,496,1.6000
1.4779,473,1.5258
1.4822,499,1.6097
1.4865,537,1.7323
1.4908,531,1.7129
1.4950,491,1.5839
1.4993,479,1.5452
1.5036,515,1.6613
1.5079,542,1.7484
1.5122,521,1.6806
1.5165,485,1.5645
1.5208,490,1.5806
1.5251,528,1.7032
1.5293,538,1.7355
1.5336,505,1.6290
1.5379,477,1.5387
1.5422,499,1.6097
1.5464,534,1.7226
1.5507,528,1.7032
1.5552,486,1.5677
1.5595,483,1.5581
1.5638,526,1.6968
1.5681,551,1.7774
1.5724,527,1.7000
1.5767,494,1.5935
1.5810,512,1.6516
1.5852,563,1.8161
1.5895,588,1.8968
1.5938,560,1.8065
1.5981,532,1.7161
1.6024,552,1.7806
1.6066,580,1.8710
1.6109,563,1.8161
1.6152,521,1.6806
1.6195,515,1.6613
1.6238,546,1.7613
1.6281,555,1.7903
1.6323,519,1.6742
1.6367,480,1.5484
1.6410,494,1.5935
1.6453,539,1.7387
1.6496,548,1.7677
1.6539,505,1.6290
1.6582,476,1.5355
1.6625,497,1.6032
1.6667,529,1.7065
1.6710,520,1.6774
1.6753,482,1.5548
1.6795,478,1.5419
1.6838,515,1.6613
1.6881,533,1.7194
1.6923,496,1.6000
1.6966,433,1.3968
1.7009,403,1.3000
1.7052,413,1.3323
1.7095,404,1.3032
1.7137,396,1.2774
1.7180,499,1.6097
1.7222,732,2.3613
1.7265,995,3.2097
1.7308,1003,3.2355
1.7350,1005,3.2419
1.7393,1004,3.2387
1.7436,1004,3.2387
1.7478,1001,3.2290
1.7521,852,2.7484
1.7564,592,1.9097
1.7607,469,1.5129
1.7650,460,1.4839
1.7693,455,1.4677
1.7736,423,1.3645
1.7779,405,1.3065
1.7822,434,1.4000
1.7865,466,1.5032
1.7909,455,1.4677
1.7951,416,1.3419
1.7994,413,1.3323
1.8038,452,1.4581
1.8080,477,1.5387
1.8123,454,1.4645
1.8167,426,1.3742
1.8209,444,1.4323
1.8252,487,1.5710
1.8296,493,1.5903
1.8339,448,1.4452
1.8382,424,1.3677
1.8425,453,1.4613
1.8468,485,1.5645
1.8515,468,1.5097
1.8559,435,1.4032
1.8602,445,1.4355
1.8645,490,1.5806
1.8688,508,1.6387
1.8731,477,1.5387
1.8774,455,1.4677
1.8817,480,1.5484
1.8860,522,1.6839
1.8904,520,1.6774
1.8947,484,1.5613
1.8990,477,1.5387
1.9033,516,1.6645
1.9076,546,1.7613
1.9119,530,1.7097
1.9162,499,1.6097
1.9205,512,1.6516
1.9248,554,1.7871
1.9291,571,1.8419
1.9334,544,1.7548
1.9377,528,1.7032
1.9420,555,1.7903
1.9463,591,1.9065
1.9523,571,1.8419
1.9567,548,1.7677
1.9610,568,1.8323
1.9653,609,1.9645
1.9696,613,1.9774
1.9739,574,1.8516
1.9781,552,1.7806
1.9826,577,1.8613
1.9869,596,1.9226
1.9912,568,1.8323
1.9955,519,1.6742
1.9997,508,1.6387
2.0040,536,1.7290
2.0083,542,1.7484
2.0125,504,1.6258
2.0168,464,1.4968
2.0211,476,1.5355
2.0254,513,1.6548
2.0296,510,1.6452
2.0339,466,1.5032
2.0381,444,1.4323
2.0424,473,1.5258
2.0467,505,1.6290
2.0510,492,1.5871
2.0552,455,1.4677
2.0595,453,1.4613
2.0638,488,1.5742
2.0681,506,1.6323
2.0724,478,1.5419
2.0767,450,1.4516
2.0810,468,1.5097
2.0853,504,1.6258
2.0896,506,1.6323
2.0939,470,1.5161
2.0982,456,1.4710
2.1025,489,1.5774
2.1068,522,1.6839
2.1110,509,1.6419
2.1154,476,1.5355
2.1196,471,1.5194
2.1239,500,1.6129
2.1282,512,1.6516
2.1325,483,1.5581
2.1368,457,1.4742
2.1411,477,1.5387
2.1454,513,1.6548
2.1497,513,1.6548
2.1540,477,1.5387
2.1583,465,1.5000
2.1626,499,1.6097
2.1669,527,1.7000
2.1712,510,1.6452
2.1755,477,1.5387
2.1798,484,1.5613
2.1841,525,1.6935
2.1884,537,1.7323
2.1927,502,1.6194
2.1970,474,1.5290
2.2013,497,1.6032
2.2056,532,1.7161
2.2099,526,1.6968
2.2142,484,1.5613
2.2184,470,1.5161
2.2227,503,1.6226
2.2270,531,1.7129
2.2313,512,1.6516
2.2356,479,1.5452
2.2399,486,1.5677
2.2442,524,1.6903
2.2491,534,1.7226
2.2535,495,1.5968
2.2579,477,1.5387
2.2623,508,1.6387
2.2667,538,1.7355
2.2710,523,1.6871
2.2753,486,1.5677
2.2795,489,1.5774
2.2838,528,1.7032
2.2881,544,1.7548
2.2923,512,1.6516
2.2967,482,1.5548
2.3009,501,1.6161
2.3052,539,1.7387
2.3095,543,1.7516
2.3137,505,1.6290
2.3180,484,1.5613
2.3223,511,1.6484
2.3266,538,1.7355
2.3309,522,1.6839
2.3352,485,1.5645
2.3395,488,1.5742
2.3438,526,1.6968
2.3480,544,1.7548
2.3523,518,1.6710
2.3566,492,1.5871
2.3609,511,1.6484
2.3652,548,1.7677
2.3695,544,1.7548
2.3738,505,1.6290
2.3781,492,1.5871
2.3823,521,1.6806
2.3866,548,1.7677
2.3909,532,1.7161
2.3952,499,1.6097
2.3994,502,1.6194
2.4037,540,1.7419
2.4080,554,1.7871
2.4123,521,1.6806
2.4167,498,1.6065
2.4210,529,1.7065
2.4253,580,1.8710
2.4295,595,1.9194
2.4338,555,1.7903
2.4381,529,1.7065
2.4424,549,1.7710
2.4466,569,1.8355
2.4509,551,1.7774
2.4552,513,1.6548
2.4595,512,1.6516
2.4638,546,1.7613
2.4680,557,1.7968
2.4723,524,1.6903
2.4766,493,1.5903
2.4809,506,1.6323
2.4852,542,1.7484
2.4895,542,1.7484
2.4939,504,1.6258
2.4982,492,1.5871
2.5025,523,1.6871
2.5068,550,1.7742
2.5110,529,1.7065
2.5153,492,1.5871
2.5196,498,1.6065
2.5239,535,1.7258
2.5282,539,1.7387
2.5324,492,1.5871
2.5367,429,1.3839
2.5410,411,1.3258
2.5453,420,1.3548
2.5495,409,1.3194
2.5538,419,1.3516
2.5581,559,1.8032
2.5624,807,2.6032
2.5667,1001,3.2290
2.5710,1004,3.2387
2.5753,1004,3.2387
2.5796,1005,3.2419
2.5838,1003,3.2355
2.5881,996,3.2129
2.5923,800,2.5806
2.5966,566,1.8258
2.6009,479,1.5452
2.6051,478,1.5419
2.6094,466,1.5032
2.6136,431,1.3903
2.6179,418,1.3484
2.6221,450,1.4516
2.6264,478,1.5419
2.6307,459,1.4806
2.6350,419,1.3516
2.6393,422,1.3613
2.6436,463,1.4935
2.6479,479,1.5452
2.6522,447,1.4419
2.6565,420,1.3548
2.6608,444,1.4323
2.6652,484,1.5613
2.6695,484,1.5613
2.6738,447,1.4419
2.6782,437,1.4097
2.6825,471,1.5194
2.6868,497,1.6032
2.6912,477,1.5387
2.6955,448,1.4452
2.6998,460,1.4839
2.7042,504,1.6258
2.7085,515,1.6613
2.7128,479,1.5452
2.7171,458,1.4774
2.7215,487,1.5710
2.7258,523,1.6871
2.7302,518,1.6710
2.7345,486,1.5677
2.7389,489,1.5774
2.7432,530,1.7097
2.7475,548,1.7677
2.7518,522,1.6839
2.7561,499,1.6097
2.7604,524,1.6903
2.7648,572,1.8452
2.7691,577,1.8613
2.7734,543,1.7516
2.7776,535,1.7258
2.7819,574,1.8516
2.7862,609,1.9645
2.7905,597,1.9258
2.7948,565,1.8226
2.7990,571,1.8419
2.8033,614,1.9806
2.8076,631,2.0355
2.8119,598,1.9290
2.8161,563,1.8161
2.8204,570,1.8387
2.8247,597,1.9258
2.8290,583,1.8806
2.8333,531,1.7129
2.8375,504,1.6258
2.8418,521,1.6806
2.8462,536,1.7290
2.8506,506,1.6323
2.8549,462,1.4903
2.8593,459,1.4806
2.8635,490,1.5806
2.8678,498,1.6065
2.8721,463,1.4935
2.8764,435,1.4032
2.8806,452,1.4581
2.8849,489,1.5774
2.8892,488,1.5742
2.8935,451,1.4548
2.8977,439,1.4161
2.9023,472,1.5226
2.9065,494,1.5935
2.9109,470,1.5161
2.9151,436,1.4065
2.9194,446,1.4387
2.9237,486,1.5677
2.9280,497,1.6032
2.9323,463,1.4935
2.9365,437,1.4097
2.9408,460,1.4839
2.9451,496,1.6000
2.9494,492,1.5871
2.9537,454,1.4645
2.9579,446,1.4387
2.9622,482,1.5548
2.9665,509,1.6419
2.9708,490,1.5806
2.9751,455,1.4677
2.9794,462,1.4903
2.9839,506,1.6323
2.9882,518,1.6710
2.9924,484,1.5613
2.9967,460,1.4839
3.0010,486,1.5677
3.0053,519,1.6742
3.0096,511,1.6484
3.0138,472,1.5226
3.0183,464,1.4968
3.0226,498,1.6065
3.0269,519,1.6742
3.0312,492,1.5871
3.0354,460,1.4839
3.0397,473,1.5258
3.0440,514,1.6581
3.0482,524,1.6903
3.0525,487,1.5710
3.0568,466,1.5032
3.0611,492,1.5871
3.0654,525,1.6935
3.0697,513,1.6548
3.0740,476,1.5355
3.0783,472,1.5226
3.0826,511,1.6484
3.0868,531,1.7129
3.0911,504,1.6258
3.0954,469,1.5129
3.0997,480,1.5484
3.1039,519,1.6742
3.1082,523,1.6871
3.1125,488,1.5742
3.1168,466,1.5032
3.1210,494,1.5935
3.1253,530,1.7097
3.1296,521,1.6806
3.1339,485,1.5645
3.1382,480,1.5484
3.1424,517,1.6677
3.1469,534,1.7226
3.1513,504,1.6258
3.1557,474,1.5290
3.1600,490,1.5806
3.1642,530,1.7097
3.1685,536,1.7290
3.1728,504,1.6258
3.1771,487,1.5710
3.1813,511,1.6484
3.1856,536,1.7290
3.1899,519,1.6742
3.1942,482,1.5548
3.1984,484,1.5613
3.2027,525,1.6935
3.2070,547,1.7645
3.2112,521,1.6806
3.2155,491,1.5839
3.2198,508,1.6387
3.2241,548,1.7677
3.2283,557,1.7968
3.2326,539,1.7387
3.2369,539,1.7387
3.2411,571,1.8419
3.2454,591,1.9065
3.2497,570,1.8387
3.2539,522,1.6839
3.2582,511,1.6484
3.2625,546,1.7613
3.2667,564,1.8194
3.2710,529,1.7065
3.2753,488,1.5742
3.2797,495,1.5968
3.2840,530,1.7097
3.2883,532,1.7161
3.2925,497,1.6032
3.2968,479,1.5452
3.3011,509,1.6419
3.3054,544,1.7548
3.3097,531,1.7129
3.3140,493,1.5903
3.3183,484,1.5613
3.3226,518,1.6710
3.3269,534,1.7226
3.3312,502,1.6194
3.3355,468,1.5097
3.3398,472,1.5226
3.3441,482,1.5548
3.3484,447,1.4419
3.3527,383,1.2355
3.3570,364,1.1742
3.3613,447,1.4419
3.3656,621,2.0032
3.3699,798,2.5742
3.3742,959,3.0935
3.3786,1003,3.2355
3.3828,1005,3.2419
3.3871,1003,3.2355
3.3914,1001,3.2290
3.3957,913,2.9452
3.4001,692,2.2323
3.4044,557,1.7968
3.4087,484,1.5613
3.4130,426,1.3742
3.4173,410,1.3226
3.4216,448,1.4452
3.4259,479,1.5452
3.4302,459,1.4806
3.4345,423,1.3645
3.4388,428,1.3806
3.4431,470,1.5161
3.4474,485,1.5645
3.4517,452,1.4581
3.4559,426,1.3742
3.4603,449,1.4484
3.4645,487,1.5710
3.4688,484,1.5613
3.4731,448,1.4452
3.4774,442,1.4258
3.4818,480,1.5484
3.4861,507,1.6355
3.4904,486,1.5677
3.4947,452,1.4581
3.4990,462,1.4903
3.5033,507,1.6355
3.5076,521,1.6806
3.5118,487,1.5710
3.5162,463,1.4935
3.5205,490,1.5806
3.5248,529,1.7065
3.5291,527,1.7000
3.5334,492,1.5871
3.5377,490,1.5806
3.5420,529,1.7065
3.5463,556,1.7935
3.5506,535,1.7258
3.5549,506,1.6323
3.5592,525,1.6935
3.5635,569,1.8355
3.5679,581,1.8742
3.5722,551,1.7774
3.5765,534,1.7226
3.5808,568,1.8323
3.5851,604,1.9484
3.5894,594,1.9161
3.5937,561,1.8097
3.5981,564,1.8194
3.6023,606,1.9548
3.6067,629,2.0290
3.6110,603,1.9452
3.6153,571,1.8419
3.6196,581,1.8742
3.6239,612,1.9742
3.6282,604,1.9484
3.6325,554,1.7871
3.6368,524,1.6903
3.6411,541,1.7452
3.6454,559,1.8032
3.6497,536,1.7290
3.6540,492,1.5871
3.6583,482,1.5548
3.6626,506,1.6323
3.6669,505,1.6290
3.6712,467,1.5065
3.6755,440,1.4194
3.6798,458,1.4774
3.6841,494,1.5935
3.6884,491,1.5839
3.6927,452,1.4581
3.6970,436,1.4065
3.7013,466,1.5032
3.7060,494,1.5935
3.7103,473,1.5258
3.7146,440,1.4194
3.7189,450,1.4516
3.7233,491,1.5839
3.7276,502,1.6194
3.7319,468,1.5097
3.7362,446,1.4387
3.7405,468,1.5097
3.7448,499,1.6097
3.7492,487,1.5710
3.7535,451,1.4548
3.7579,452,1.4581
3.7622,495,1.5968
3.7665,517,1.6677
3.7708,491,1.5839
3.7751,456,1.4710
3.7794,469,1.5129
3.7837,508,1.6387
3.7879,512,1.6516
3.7922,474,1.5290
3.7965,456,1.4710
3.8008,483,1.5581
3.8051,515,1.6613
3.8094,504,1.6258
3.8136,468,1.5097
3.8179,470,1.5161
3.8222,509,1.6419
3.8265,525,1.6935
3.8309,495,1.5968
3.8351,465,1.5000
3.8394,483,1.5581
3.8437,523,1.6871
3.8480,525,1.6935
3.8523,485,1.5645
3.8566,465,1.5000
3.8609,493,1.5903
3.8652,524,1.6903
3.8694,511,1.6484
3.8738,477,1.5387
3.8781,479,1.5452
3.8824,515,1.6613
3.8867,527,1.7000
3.8910,493,1.5903
3.8952,463,1.4935
3.8995,483,1.5581
3.9038,523,1.6871
3.9081,523,1.6871
3.9124,484,1.5613
3.9167,466,1.5032
3.9210,497,1.6032
3.9252,526,1.6968
3.9295,512,1.6516
3.9339,477,1.5387
3.9382,480,1.5484
3.9424,519,1.6742
3.9467,537,1.7323
3.9510,505,1.6290
3.9553,474,1.5290
3.9596,494,1.5935
3.9639,530,1.7097
3.9681,527,1.7000
3.9724,489,1.5774
3.9767,476,1.5355
3.9810,510,1.6452
3.9852,540,1.7419
3.9895,522,1.6839
3.9938,487,1.5710
3.9981,487,1.5710
4.0024,524,1.6903
4.0067,536,1.7290
4.0109,503,1.6226
4.0152,473,1.5258
4.0195,486,1.5677
4.0238,519,1.6742
4.0281,518,1.6710
4.0324,486,1.5677
4.0367,474,1.5290
4.0409,504,1.6258
4.0452,528,1.7032
4.0496,509,1.6419
4.0540,478,1.5419
4.0584,489,1.5774
4.0627,531,1.7129
4.0670,537,1.7323
4.0713,507,1.6355
4.0756,494,1.5935
4.0798,533,1.7194
4.0841,579,1.8677
4.0884,567,1.8290
4.0927,523,1.6871
4.0970,503,1.6226
4.1013,525,1.6935
4.1056,543,1.7516
4.1099,513,1.6548
4.1142,472,1.5226
4.1185,476,1.5355
4.1227,514,1.6581
4.1271,519,1.6742
4.1314,480,1.5484
4.1356,452,1.4581
4.1399,473,1.5258
4.1442,507,1.6355
4.1485,501,1.6161
4.1528,466,1.5032
4.1572,461,1.4871
4.1615,500,1.6129
4.1658,516,1.6645
4.1701,484,1.5613
4.1745,449,1.4484
4.1788,461,1.4871
4.1831,499,1.6097
4.1874,483,1.5581
4.1917,403,1.3000
4.1960,347,1.1194
4.2003,352,1.1355
4.2046,396,1.2774
4.2089,478,1.5419
4.2132,623,2.0097
4.2175,845,2.7258
4.2218,1002,3.2323
4.2261,1005,3.2419
4.2304,1003,3.2355
4.2346,1003,3.2355
4.2389,1000,3.2258
4.2432,860,2.7742
4.2475,623,2.0097
4.2518,453,1.4613
4.2561,390,1.2581
4.2604,409,1.3194
4.2647,444,1.4323
4.2690,436,1.4065
4.2733,400,1.2903
4.2776,396,1.2774
4.2819,425,1.3710
4.2863,445,1.4355
4.2906,424,1.3677
4.2949,398,1.2839
4.2992,409,1.3194
4.3036,447,1.4419
4.3079,452,1.4581
4.3122,417,1.3452
4.3166,409,1.3194
4.3209,443,1.4290
4.3253,472,1.5226
4.3296,450,1.4516
4.3339,419,1.3516
4.3383,427,1.3774
4.3426,466,1.5032
4.3469,478,1.5419
4.3513,447,1.4419
4.3556,432,1.3935
4.3599,460,1.4839
4.3643,495,1.5968
4.3686,484,1.5613
4.3729,452,1.4581
4.3772,454,1.4645
4.3816,498,1.6065
4.3859,524,1.6903
4.3902,498,1.6065
4.3945,472,1.5226
4.3987,494,1.5935
4.4030,534,1.7226
4.4073,537,1.7323
4.4116,505,1.6290
4.4159,497,1.6032
4.4202,532,1.7161
4.4245,571,1.8419
4.4288,563,1.8161
4.4331,530,1.7097
4.4374,532,1.7161
4.4417,575,1.8548
4.4460,596,1.9226
4.4503,578,1.8645
4.4546,556,1.7935
4.4589,578,1.8645
4.4632,610,1.9677
4.4675,606,1.9548
4.4718,564,1.8194
4.4760,540,1.7419
4.4803,560,1.8065
4.4846,577,1.8613
4.4890,543,1.7516
4.4933,494,1.5935
4.4977,482,1.5548
4.5020,511,1.6484
4.5063,516,1.6645
4.5106,478,1.5419
4.5150,448,1.4452
4.5193,466,1.5032
4.5236,501,1.6161
4.5280,492,1.5871
4.5323,456,1.4710
4.5367,446,1.4387
4.5410,478,1.5419
4.5453,500,1.6129
4.5497,478,1.5419
4.5540,443,1.4290
4.5583,454,1.4645
4.5626,499,1.6097
4.5670,510,1.6452
4.5713,473,1.5258
4.5756,447,1.4419
4.5800,472,1.5226
4.5843,502,1.6194
4.5886,491,1.5839
4.5929,458,1.4774
4.5972,461,1.4871
4.6015,503,1.6226
4.6058,524,1.6903
4.6101,491,1.5839
4.6144,456,1.4710
4.6187,474,1.5290
4.6229,520,1.6774
4.6272,532,1.7161
4.6315,497,1.6032
4.6358,473,1.5258
4.6401,490,1.5806
4.6444,514,1.6581
4.6489,495,1.5968
4.6533,460,1.4839
4.6577,468,1.5097
4.6620,512,1.6516
4.6663,529,1.7065
4.6706,500,1.6129
4.6749,477,1.5387
4.6792,501,1.6161
4.6835,535,1.7258
4.6878,527,1.7000
4.6921,490,1.5806
4.6964,479,1.5452
4.7008,513,1.6548
4.7051,539,1.7387
4.7095,516,1.6645
4.7138,484,1.5613
4.7181,489,1.5774
4.7225,525,1.6935
4.7268,526,1.6968
4.7311,491,1.5839
4.7354,476,1.5355
4.7398,505,1.6290
4.7441,537,1.7323
4.7484,528,1.7032
4.7528,489,1.5774
4.7571,484,1.5613
4.7614,520,1.6774
4.7657,540,1.7419
4.7701,515,1.6613
4.7744,487,1.5710
4.7787,502,1.6194
4.7832,535,1.7258
4.7875,534,1.7226
4.7918,497,1.6032
4.7961,486,1.5677
4.8004,521,1.6806
4.8047,549,1.7710
4.8090,530,1.7097
4.8133,492,1.5871
4.8176,497,1.6032
4.8219,532,1.7161
4.8261,547,1.7645
4.8304,522,1.6839
4.8347,502,1.6194
4.8390,523,1.6871
4.8433,552,1.7806
4.8476,542,1.7484
4.8519,504,1.6258
4.8562,504,1.6258
4.8605,555,1.7903
4.8648,604,1.9484
4.8691,598,1.9290
4.8734,555,1.7903
4.8777,546,1.7613
4.8819,575,1.8548
4.8862,579,1.8677
4.8906,547,1.7645
4.8949,523,1.6871
4.8993,542,1.7484
4.9036,565,1.8226
4.9079,548,1.7677
4.9122,504,1.6258
4.9165,497,1.6032
4.9209,532,1.7161
4.9253,554,1.7871
4.9296,529,1.7065
4.9339,499,1.6097
4.9383,514,1.6581
4.9426,546,1.7613
4.9470,541,1.7452
4.9514,504,1.6258
4.9558,491,1.5839
4.9603,525,1.6935
4.9646,547,1.7645
4.9689,521,1.6806
4.9732,463,1.4935
4.9776,427,1.3774
4.9819,434,1.4000
4.9862,432,1.3935
4.9906,419,1.3516
4.9948,503,1.6226
4.9991,705,2.2742
5.0034,937,3.0226
5.0078,1003,3.2355
5.0122,1005,3.2419
5.0167,1005,3.2419
5.0213,1004,3.2387
5.0258,994,3.2065
5.0309,728,2.3484
5.0354,521,1.6806
5.0397,473,1.5258
5.0440,483,1.5581
5.0483,464,1.4968
5.0526,428,1.3806
5.0569,433,1.3968
5.0612,472,1.5226
5.0655,486,1.5677
5.0698,451,1.4548
5.0741,421,1.3581
5.0784,442,1.4258
5.0827,485,1.5645
5.0870,487,1.5710
5.0913,452,1.4581
5.0955,443,1.4290
5.0998,478,1.5419
5.1041,509,1.6419
5.1083,495,1.5968
5.1126,460,1.4839
5.1168,461,1.4871
5.1211,499,1.6097
5.1254,511,1.6484
5.1296,483,1.5581
5.1339,458,1.4774
5.1381,482,1.5548
5.1424,526,1.6968
5.1467,530,1.7097
5.1510,491,1.5839
5.1552,475,1.5323
5.1595,508,1.6387
5.1638,545,1.7581
5.1680,537,1.7323
5.1723,505,1.6290
5.1765,508,1.6387
5.1808,553,1.7839
5.1851,583,1.8806
5.1894,561,1.8097
5.1937,526,1.6968
5.1981,541,1.7452
5.2024,582,1.8774
5.2067,589,1.9000
5.2111,555,1.7903
5.2154,549,1.7710
5.2197,589,1.9000
5.2240,625,2.0161
5.2284,613,1.9774
5.2327,581,1.8742
5.2370,589,1.9000
5.2414,633,2.0419
5.2457,646,2.0839
5.2501,607,1.9581
5.2544,572,1.8452
5.2587,584,1.8839
5.2631,608,1.9613
5.2674,588,1.8968
5.2718,536,1.7290
5.2761,517,1.6677
5.2804,546,1.7613
5.2847,556,1.7935
5.2891,510,1.6452
5.2934,461,1.4871
5.2977,465,1.5000
5.3020,500,1.6129
5.3063,503,1.6226
5.3106,466,1.5032
5.3149,445,1.4355
5.3192,471,1.5194
5.3235,504,1.6258
5.3278,494,1.5935
5.3320,457,1.4742
5.3363,457,1.4742
5.3406,496,1.6000
5.3449,515,1.6613
5.3493,489,1.5774
5.3536,456,1.4710
5.3578,463,1.4935
5.3621,497,1.6032
5.3664,501,1.6161
5.3708,469,1.5129
5.3750,459,1.4806
5.3793,489,1.5774
5.3836,516,1.6645
5.3879,500,1.6129
5.3922,463,1.4935
5.3966,465,1.5000
5.4009,508,1.6387
5.4052,527,1.7000
5.4096,499,1.6097
5.4139,471,1.5194
5.4182,492,1.5871
5.4225,530,1.7097
5.4269,526,1.6968
5.4312,487,1.5710
5.4355,477,1.5387
5.4399,511,1.6484
5.4442,538,1.7355
5.4485,518,1.6710
5.4529,484,1.5613
5.4572,492,1.5871
5.4615,531,1.7129
5.4659,539,1.7387
5.4702,505,1.6290
5.4745,485,1.5645
5.4788,514,1.6581
5.4832,545,1.7581
5.4875,530,1.7097
5.4918,489,1.5774
5.4961,483,1.5581
5.5004,518,1.6710
5.5047,539,1.7387
5.5090,514,1.6581
5.5133,487,1.5710
5.5176,503,1.6226
5.5219,544,1.7548
5.5262,549,1.7710
5.5305,507,1.6355
5.5348,483,1.5581
5.5390,512,1.6516
5.5433,545,1.7581
5.5477,533,1.7194
5.5521,493,1.5903
5.5565,494,1.5935
5.5609,533,1.7194
5.5655,546,1.7613
5.5698,513,1.6548
5.5741,491,1.5839
5.5785,517,1.6677
5.5827,556,1.7935
5.5870,555,1.7903
5.5913,517,1.6677
5.5956,518,1.6710
5.5999,572,1.8452
5.6042,610,1.9677
5.6085,583,1.8806
5.6128,537,1.7323
5.6171,531,1.7129
5.6214,559,1.8032
5.6257,565,1.8226
5.6300,527,1.7000
5.6343,503,1.6226
5.6386,522,1.6839
5.6429,551,1.7774
5.6472,540,1.7419
5.6515,497,1.6032
5.6557,483,1.5581
5.6601,515,1.6613
5.6643,534,1.7226
5.6686,508,1.6387
5.6729,473,1.5258
5.6772,485,1.5645
5.6816,526,1.6968
5.6859,533,1.7194
5.6901,495,1.5968
5.6944,474,1.5290
5.6988,500,1.6129
5.7032,520,1.6774
5.7075,475,1.5323
5.7118,395,1.2742
5.7161,364,1.1742
5.7205,398,1.2839
5.7248,467,1.5065
5.7291,587,1.8935
5.7334,768,2.4774
5.7378,996,3.2129
5.7421,1002,3.2323
5.7465,1005,3.2419
5.7509,1003,3.2355
5.7552,1003,3.2355
5.7595,975,3.1452
5.7638,751,2.4226
5.7682,536,1.7290
5.7725,424,1.3677
5.7768,415,1.3387
5.7812,459,1.4806
5.7855,475,1.5323
5.7898,440,1.4194
5.7941,415,1.3387
5.7985,439,1.4161
5.8028,475,1.5323
5.8071,469,1.5129
5.8114,430,1.3871
5.8156,422,1.3613
5.8199,457,1.4742
5.8242,480,1.5484
5.8285,454,1.4645
5.8328,424,1.3677
5.8371,438,1.4129
5.8414,481,1.5516
5.8457,489,1.5774
5.8502,453,1.4613
5.8545,436,1.4065
5.8589,468,1.5097
5.8632,504,1.6258
5.8675,491,1.5839
5.8718,454,1.4645
5.8761,456,1.4710
5.8804,497,1.6032
5.8847,520,1.6774
5.8890,496,1.6000
5.8933,468,1.5097
5.8976,482,1.5548
5.9019,517,1.6677
5.9063,520,1.6774
5.9106,489,1.5774
5.9148,482,1.5548
5.9191,518,1.6710
5.9234,548,1.7677
5.9277,534,1.7226
5.9320,503,1.6226
5.9363,515,1.6613
5.9406,564,1.8194
5.9449,590,1.9032
5.9492,564,1.8194
5.9535,538,1.7355
5.9578,559,1.8032
5.9621,600,1.9355
5.9664,600,1.9355
5.9707,564,1.8194
5.9750,556,1.7935
5.9793,593,1.9129
5.9836,618,1.9935
5.9879,591,1.9065
5.9921,544,1.7548
5.9964,536,1.7290
6.0008,562,1.8129
6.0052,561,1.8097
6.0095,516,1.6645
6.0138,484,1.5613
6.0182,506,1.6323
6.0225,534,1.7226
6.0268,513,1.6548
6.0312,461,1.4871
6.0355,450,1.4516
6.0398,484,1.5613
6.0441,501,1.6161
6.0485,469,1.5129
6.0529,438,1.4129
6.0572,451,1.4548
6.0615,490,1.5806
6.0658,494,1.5935
6.0702,460,1.4839
6.0745,447,1.4419
6.0788,476,1.5355
6.0832,503,1.6226
6.0875,486,1.5677
6.0918,454,1.4645
6.0961,457,1.4742
6.1005,493,1.5903
6.1048,502,1.6194
6.1091,471,1.5194
6.1134,447,1.4419
6.1177,467,1.5065
6.1220,503,1.6226
6.1262,500,1.6129
6.1306,462,1.4903
6.1348,453,1.4613
6.1391,488,1.5742
6.1434,517,1.6677
6.1477,499,1.6097
6.1520,465,1.5000
6.1563,472,1.5226
6.1606,513,1.6548
6.1649,526,1.6968
6.1692,492,1.5871
6.1735,464,1.4968
6.1778,482,1.5548
6.1821,515,1.6613
6.1864,510,1.6452
6.1907,475,1.5323
6.1950,469,1.5129
6.1993,505,1.6290
6.2036,529,1.7065
6.2079,502,1.6194
6.2123,464,1.4968
6.2166,474,1.5290
6.2210,516,1.6645
6.2253,525,1.6935
6.2296,488,1.5742
6.2340,466,1.5032
6.2383,495,1.5968
6.2426,532,1.7161
6.2470,525,1.6935
6.2513,486,1.5677
6.2556,480,1.5484
6.2600,514,1.6581
6.2643,529,1.7065
6.2686,496,1.6000
6.2729,467,1.5065
6.2773,489,1.5774
6.2816,528,1.7032
6.2859,524,1.6903
6.2902,482,1.5548
6.2946,468,1.5097
6.2989,502,1.6194
6.3032,531,1.7129
6.3075,514,1.6581
6.3118,483,1.5581
6.3161,491,1.5839
6.3204,530,1.7097
6.3247,545,1.7581
6.3290,522,1.6839
6.3333,510,1.6452
6.3376,551,1.7774
6.3419,595,1.9194
6.3462,583,1.8806
6.3505,536,1.7290
6.3549,515,1.6613
6.3592,539,1.7387
6.3635,563,1.8161
6.3678,537,1.7323
6.3721,491,1.5839
6.3764,490,1.5806
6.3807,524,1.6903
6.3850,531,1.7129
6.3893,493,1.5903
6.3936,468,1.5097
6.3979,494,1.5935
6.4022,531,1.7129
6.4065,522,1.6839
6.4109,483,1.5581
6.4152,477,1.5387
6.4195,514,1.6581
6.4238,535,1.7258
6.4281,511,1.6484
6.4324,475,1.5323
6.4367,477,1.5387
6.4410,504,1.6258
6.4454,482,1.5548
6.4501,398,1.2839
6.4545,351,1.1323
6.4589,368,1.1871
6.4632,435,1.4032
6.4675,557,1.7968
6.4718,737,2.3774
6.4761,984,3.1742
6.4804,1003,3.2355
6.4847,1005,3.2419
6.4890,1003,3.2355
6.4933,1002,3.2323
6.4976,992,3.2000
6.5019,794,2.5613
6.5063,579,1.8677
6.5105,446,1.4387
6.5148,411,1.3258
6.5192,445,1.4355
6.5235,469,1.5129
6.5278,443,1.4290
6.5320,403,1.3000
6.5364,412,1.3290
6.5408,455,1.4677
6.5451,463,1.4935
6.5494,424,1.3677
6.5537,401,1.2935
6.5580,429,1.3839
6.5624,465,1.5000
6.5666,454,1.4645
6.5709,417,1.3452
6.5752,416,1.3419
6.5795,458,1.4774
6.5839,481,1.5516
6.5881,454,1.4645
6.5924,427,1.3774
6.5968,448,1.4452
6.6015,493,1.5903
6.6058,490,1.5806
6.6101,451,1.4548
6.6144,443,1.4290
6.6187,483,1.5581
6.6230,517,1.6677
6.6273,499,1.6097
6.6316,460,1.4839
6.6359,464,1.4968
6.6402,507,1.6355
6.6445,523,1.6871
6.6488,494,1.5935
6.6531,472,1.5226
6.6574,501,1.6161
6.6623,547,1.7645
6.6667,539,1.7387
6.6710,508,1.6387
6.6753,511,1.6484
6.6796,557,1.7968
6.6839,584,1.8839
6.6882,562,1.8129
6.6925,538,1.7355
6.6968,557,1.7968
6.7011,602,1.9419
6.7055,605,1.9516
6.7098,572,1.8452
6.7141,563,1.8161
6.7184,594,1.9161
6.7227,619,1.9968
6.7270,593,1.9129
6.7313,543,1.7516
6.7356,535,1.7258
6.7400,565,1.8226
6.7447,561,1.8097
6.7491,512,1.6516
6.7536,477,1.5387
6.7580,496,1.6000
6.7623,521,1.6806
6.7667,499,1.6097
6.7710,456,1.4710
6.7752,452,1.4581
6.7795,491,1.5839
6.7838,510,1.6452
6.7882,479,1.5452
6.7925,445,1.4355
6.7967,457,1.4742
6.8014,496,1.6000
6.8058,488,1.5742
6.8101,448,1.4452
6.8144,438,1.4129
6.8187,474,1.5290
6.8230,500,1.6129
6.8273,480,1.5484
6.8316,447,1.4419
6.8359,457,1.4742
6.8402,498,1.6065
6.8445,506,1.6323
6.8488,472,1.5226
6.8535,451,1.4548
6.8578,485,1.5645
6.8626,521,1.6806
6.8669,501,1.6161
6.8712,463,1.4935
6.8755,467,1.5065
6.8798,511,1.6484
6.8841,525,1.6935
6.8884,488,1.5742
6.8927,455,1.4677
6.8970,473,1.5258
6.9013,510,1.6452
6.9056,509,1.6419
6.9099,473,1.5258
6.9142,465,1.5000
6.9185,500,1.6129
6.9228,526,1.6968
6.9271,506,1.6323
6.9314,471,1.5194
6.9357,478,1.5419
6.9400,515,1.6613
6.9443,525,1.6935
6.9487,490,1.5806
6.9530,470,1.5161
6.9573,498,1.6065
6.9616,531,1.7129
6.9659,520,1.6774
6.9702,478,1.5419
6.9745,473,1.5258
6.9788,511,1.6484
6.9831,537,1.7323
6.9874,513,1.6548
6.9917,472,1.5226
6.9960,480,1.5484
7.0003,518,1.6710
7.0046,528,1.7032
7.0089,495,1.5968
7.0133,473,1.5258
7.0175,499,1.6097
7.0218,531,1.7129
7.0261,518,1.6710
7.0305,480,1.5484
7.0348,482,1.5548
7.0390,524,1.6903
7.0433,547,1.7645
7.0476,519,1.6742
7.0520,483,1.5581
7.0563,494,1.5935
7.0606,537,1.7323
7.0649,554,1.7871
7.0692,540,1.7419
7.0735,542,1.7484
7.0778,570,1.8387
7.0821,593,1.9129
7.0864,563,1.8161
7.0912,505,1.6290
7.0955,506,1.6323
7.0998,542,1.7484
7.1041,550,1.7742
7.1085,510,1.6452
7.1128,484,1.5613
7.1171,505,1.6290
7.1214,538,1.7355
7.1257,527,1.7000
7.1300,485,1.5645
7.1343,476,1.5355
7.1386,511,1.6484
7.1429,534,1.7226
7.1472,509,1.6419
7.1515,473,1.5258
7.1558,483,1.5581
7.1601,523,1.6871
7.1644,529,1.7065
7.1687,493,1.5903
7.1731,465,1.5000
7.1774,466,1.5032
7.1816,454,1.4645
7.1859,409,1.3194
7.1902,358,1.1548
7.1945,376,1.2129
7.1988,519,1.6742
7.2031,723,2.3323
7.2074,894,2.8839
7.2118,1001,3.2290
7.2161,1003,3.2355
7.2204,1005,3.2419
7.2247,1001,3.2290
7.2290,992,3.2000
7.2333,785,2.5323
7.2376,596,1.9226
7.2419,512,1.6516
7.2462,459,1.4806
7.2505,412,1.3290
7.2548,414,1.3355
7.2591,457,1.4742
7.2634,477,1.5387
7.2677,446,1.4387
7.2720,417,1.3452
7.2763,435,1.4032
7.2806,473,1.5258
7.2849,471,1.5194
7.2892,432,1.3935
7.2935,419,1.3516
7.2978,455,1.4677
7.3021,488,1.5742
7.3065,473,1.5258
7.3114,438,1.4129
7.3157,450,1.4516
7.3200,492,1.5871
7.3243,500,1.6129
7.3286,462,1.4903
7.3329,443,1.4290
7.3372,474,1.5290
7.3415,511,1.6484
7.3459,504,1.6258
7.3503,467,1.5065
7.3547,470,1.5161
7.3591,515,1.6613
7.3635,534,1.7226
7.3678,504,1.6258
7.3720,479,1.5452
7.3763,500,1.6129
7.3807,543,1.7516
7.3850,547,1.7645
7.3893,512,1.6516
7.3936,504,1.6258
7.3979,543,1.7516
7.4022,580,1.8710
7.4065,569,1.8355
7.4109,536,1.7290
7.4152,544,1.7548
7.4196,589,1.9000
7.4239,605,1.9516
7.4285,575,1.8548
7.4328,558,1.8000
7.4372,592,1.9097
7.4415,629,2.0290
7.4458,618,1.9935
7.4501,576,1.8581
7.4548,571,1.8419
7.4592,605,1.9516
7.4635,613,1.9774
7.4678,567,1.8290
7.4721,522,1.6839
7.4764,524,1.6903
7.4807,544,1.7548
7.4850,531,1.7129
7.4893,488,1.5742
7.4936,471,1.5194
7.4979,495,1.5968
7.5022,510,1.6452
7.5065,479,1.5452
7.5109,437,1.4097
7.5152,444,1.4323
7.5195,487,1.5710
7.5238,498,1.6065
7.5281,461,1.4871
7.5324,435,1.4032
7.5367,459,1.4806
7.5410,497,1.6032
7.5453,490,1.5806
7.5496,450,1.4516
7.5539,441,1.4226
7.5583,476,1.5355
7.5626,497,1.6032
7.5669,472,1.5226
7.5712,441,1.4226
7.5755,454,1.4645
7.5798,497,1.6032
7.5841,506,1.6323
7.5884,472,1.5226
7.5927,449,1.4484
7.5970,476,1.5355
7.6013,511,1.6484
7.6056,501,1.6161
7.6099,463,1.4935
7.6142,460,1.4839
7.6185,497,1.6032
7.6229,516,1.6645
7.6272,489,1.5774
7.6314,457,1.4742
7.6357,471,1.5194
7.6400,510,1.6452
7.6444,513,1.6548
7.6492,472,1.5226
7.6536,464,1.4968
7.6580,501,1.6161
7.6624,527,1.7000
7.6667,502,1.6194
7.6710,465,1.5000
7.6753,477,1.5387
7.6797,521,1.6806
7.6840,527,1.7000
7.6883,485,1.5645
7.6926,462,1.4903
7.6969,488,1.5742
7.7012,523,1.6871
7.7055,513,1.6548
7.7099,475,1.5323
7.7142,473,1.5258
7.7185,510,1.6452
7.7228,529,1.7065
7.7271,499,1.6097
7.7314,469,1.5129
7.7357,484,1.5613
7.7400,523,1.6871
7.7443,525,1.6935
7.7486,488,1.5742
7.7529,474,1.5290
7.7572,507,1.6355
7.7615,536,1.7290
7.7658,516,1.6645
7.7701,477,1.5387
7.7744,476,1.5355
7.7787,516,1.6645
7.7830,536,1.7290
7.7873,511,1.6484
7.7916,487,1.5710
7.7959,505,1.6290
7.8002,539,1.7387
7.8045,541,1.7452
7.8088,508,1.6387
7.8131,509,1.6419
7.8174,561,1.8097
7.8217,603,1.9452
7.8266,576,1.8581
7.8310,533,1.7194
7.8352,533,1.7194
7.8395,559,1.8032
7.8438,559,1.8032
7.8482,519,1.6742
7.8525,495,1.5968
7.8568,516,1.6645
7.8611,541,1.7452
7.8654,527,1.7000
7.8697,484,1.5613
7.8740,477,1.5387
7.8783,512,1.6516
7.8826,531,1.7129
7.8869,503,1.6226
7.8912,472,1.5226
7.8955,488,1.5742
7.8998,527,1.7000
7.9041,528,1.7032
7.9084,489,1.5774
7.9127,470,1.5161
7.9170,497,1.6032
7.9213,519,1.6742
7.9256,477,1.5387
7.9299,397,1.2806
7.9342,368,1.1871
7.9385,396,1.2774
7.9428,441,1.4226
7.9471,532,1.7161
7.9514,698,2.2516
7.9557,922,2.9742
7.9600,1004,3.2387
7.9643,1004,3.2387
7.9686,1003,3.2355
7.9730,1003,3.2355
7.9773,995,3.2097
7.9815,827,2.6677
7.9858,586,1.8903
7.9902,438,1.4129
7.9945,408,1.3161
7.9988,442,1.4258
8.0030,463,1.4935
8.0073,436,1.4065
8.0119,409,1.3194
8.0162,429,1.3839
8.0205,463,1.4935
8.0248,459,1.4806
8.0291,423,1.3645
8.0334,418,1.3484
8.0377,455,1.4677
8.0420,478,1.5419
8.0467,450,1.4516
8.0510,421,1.3581
8.0553,436,1.4065
8.0596,476,1.5355
8.0639,481,1.5516
8.0681,447,1.4419
8.0724,430,1.3871
8.0767,461,1.4871
8.0809,496,1.6000
8.0852,488,1.5742
8.0894,452,1.4581
8.0937,450,1.4516
8.0980,490,1.5806
8.1022,516,1.6645
8.1065,492,1.5871
8.1108,460,1.4839
8.1151,475,1.5323
8.1194,516,1.6645
8.1237,524,1.6903
8.1280,492,1.5871
8.1323,477,1.5387
8.1365,509,1.6419
8.1409,545,1.7581
8.1452,536,1.7290
8.1495,502,1.6194
8.1538,502,1.6194
8.1581,544,1.7548
8.1624,570,1.8387
8.1667,550,1.7742
8.1710,529,1.7065
8.1753,551,1.7774
8.1796,599,1.9323
8.1839,605,1.9516
8.1882,570,1.8387
8.1925,554,1.7871
8.1968,585,1.8871
8.2011,618,1.9935
8.2054,598,1.9290
8.2097,550,1.7742
8.2140,538,1.7355
8.2183,567,1.8290
8.2226,571,1.8419
8.2269,527,1.7000
8.2312,486,1.5677
8.2355,494,1.5935
8.2398,525,1.6935
8.2441,518,1.6710
8.2484,473,1.5258
8.2529,452,1.4581
8.2574,483,1.5581
8.2617,508,1.6387
8.2660,485,1.5645
8.2703,450,1.4516
8.2746,457,1.4742
8.2789,495,1.5968
8.2832,503,1.6226
8.2875,466,1.5032
8.2918,445,1.4355
8.2962,473,1.5258
8.3005,506,1.6323
8.3049,493,1.5903
8.3092,453,1.4613
8.3137,450,1.4516
8.3184,494,1.5935
8.3227,510,1.6452
8.3270,480,1.5484
8.3313,453,1.4613
8.3356,474,1.5290
8.3400,511,1.6484
8.3443,508,1.6387
8.3485,470,1.5161
8.3531,461,1.4871
8.3574,496,1.6000
8.3617,517,1.6677
8.3660,492,1.5871
8.3704,458,1.4774
8.3747,470,1.5161
8.3790,512,1.6516
8.3833,523,1.6871
8.3876,489,1.5774
8.3918,465,1.5000
8.3961,488,1.5742
8.4005,522,1.6839
8.4048,515,1.6613
8.4090,479,1.5452
8.4133,472,1.5226
8.4176,509,1.6419
8.4220,528,1.7032
8.4263,500,1.6129
8.4306,466,1.5032
8.4349,480,1.5484
8.4392,518,1.6710
8.4435,518,1.6710
8.4478,479,1.5452
8.4520,460,1.4839
8.4563,492,1.5871
8.4607,524,1.6903
8.4651,511,1.6484
8.4694,470,1.5161
8.4737,470,1.5161
8.4780,511,1.6484
8.4823,531,1.7129
8.4867,502,1.6194
8.4909,472,1.5226
8.4952,484,1.5613
8.5001,525,1.6935
8.5044,521,1.6806
8.5087,485,1.5645
8.5130,478,1.5419
8.5173,510,1.6452
8.5216,534,1.7226
8.5259,510,1.6452
8.5302,474,1.5290
8.5345,482,1.5548
8.5388,524,1.6903
8.5432,534,1.7226
8.5475,498,1.6065
8.5519,474,1.5290
8.5563,502,1.6194
8.5607,543,1.7516
8.5650,524,1.6903
8.5694,487,1.5710
8.5737,487,1.5710
8.5780,523,1.6871
8.5824,540,1.7419
8.5866,510,1.6452
8.5909,482,1.5548
8.5952,500,1.6129
8.5995,538,1.7355
8.6039,538,1.7355
8.6082,503,1.6226
8.6124,492,1.5871
8.6167,527,1.7000
8.6211,560,1.8065
8.6254,556,1.7935
8.6297,539,1.7387
8.6340,546,1.7613
8.6383,578,1.8645
8.6426,581,1.8742
8.6469,541,1.7452
8.6512,508,1.6387
8.6555,531,1.7129
8.6598,563,1.8161
8.6641,551,1.7774
8.6684,502,1.6194
8.6727,487,1.5710
8.6770,520,1.6774
8.6813,540,1.7419
8.6856,516,1.6645
8.6899,482,1.5548
8.6942,489,1.5774
8.6985,526,1.6968
8.7028,534,1.7226
8.7071,498,1.6065
8.7114,476,1.5355
8.7157,499,1.6097
8.7200,535,1.7258
8.7248,522,1.6839
8.7291,477,1.5387
8.7334,458,1.4774
8.7376,454,1.4645
8.7419,435,1.4032
8.7463,381,1.2290
8.7506,352,1.1355
8.7549,449,1.4484
8.7592,665,2.1452
8.7635,893,2.8806
8.7678,1001,3.2290
8.7721,1004,3.2387
8.7764,1005,3.2419
8.7807,1005,3.2419
8.7850,1002,3.2323
8.7893,922,2.9742
8.7936,674,2.1742
8.7979,539,1.7387
8.8022,484,1.5613
8.8065,433,1.3968
8.8108,405,1.3065
8.8151,426,1.3742
8.8194,463,1.4935
8.8237,460,1.4839
8.8281,423,1.3645
8.8324,412,1.3290
8.8366,441,1.4226
8.8409,467,1.5065
8.8452,447,1.4419
8.8496,410,1.3226
8.8539,416,1.3419
8.8581,458,1.4774
8.8624,475,1.5323
8.8667,446,1.4387
8.8711,424,1.3677
8.8754,450,1.4516
8.8797,488,1.5742
8.8840,484,1.5613
8.8883,444,1.4323
8.8926,437,1.4097
8.8969,472,1.5226
8.9012,498,1.6065
8.9055,478,1.5419
8.9098,448,1.4452
8.9141,462,1.4903
8.9184,505,1.6290
8.9227,517,1.6677
8.9270,481,1.5516
8.9313,461,1.4871
8.9356,490,1.5806
8.9399,531,1.7129
8.9442,530,1.7097
8.9490,496,1.6000
8.9533,500,1.6129
8.9576,538,1.7355
8.9619,556,1.7935
8.9662,529,1.7065
8.9705,507,1.6355
8.9749,532,1.7161
8.9792,575,1.8548
8.9834,580,1.8710
8.9877,547,1.7645
8.9921,538,1.7355
8.9964,577,1.8613
9.0006,611,1.9710
9.0049,598,1.9290
9.0092,562,1.8129
9.0135,565,1.8226
9.0179,600,1.9355
9.0222,607,1.9581
9.0265,563,1.8161
9.0309,524,1.6903
9.0352,535,1.7258
9.0394,560,1.8065
9.0437,547,1.7645
9.0480,500,1.6129
9.0524,480,1.5484
9.0567,501,1.6161
9.0610,516,1.6645
9.0652,485,1.5645
9.0695,448,1.4452
9.0739,457,1.4742
9.0782,498,1.6065
9.0825,504,1.6258
9.0868,467,1.5065
9.0911,440,1.4194
9.0954,463,1.4935
9.0997,498,1.6065
9.1040,493,1.5903
9.1083,454,1.4645
9.1126,448,1.4452
9.1169,486,1.5677
9.1212,510,1.6452
9.1255,487,1.5710
9.1298,455,1.4677
9.1341,466,1.5032
9.1384,505,1.6290
9.1427,513,1.6548
9.1470,477,1.5387
9.1515,459,1.4806
9.1559,489,1.5774
9.1603,521,1.6806
9.1646,502,1.6194
9.1690,461,1.4871
9.1733,466,1.5032
9.1776,505,1.6290
9.1819,518,1.6710
9.1861,486,1.5677
9.1904,456,1.4710
9.1947,476,1.5355
9.1989,514,1.6581
9.2032,516,1.6645
9.2075,477,1.5387
9.2118,463,1.4935
9.2160,494,1.5935
9.2203,523,1.6871
9.2246,507,1.6355
9.2288,470,1.5161
9.2331,474,1.5290
9.2374,516,1.6645
9.2416,532,1.7161
9.2459,499,1.6097
9.2502,467,1.5065
9.2545,483,1.5581
9.2588,521,1.6806
9.2630,520,1.6774
9.2673,480,1.5484
9.2716,464,1.4968
9.2758,496,1.6000
9.2801,527,1.7000
9.2844,513,1.6548
9.2890,472,1.5226
9.2933,476,1.5355
9.2976,516,1.6645
9.3018,530,1.7097
9.3061,498,1.6065
9.3104,474,1.5290
9.3146,493,1.5903
9.3189,530,1.7097
9.3232,528,1.7032
9.3275,489,1.5774
9.3318,478,1.5419
9.3361,512,1.6516
9.3404,542,1.7484
9.3447,521,1.6806
9.3490,484,1.5613
9.3534,488,1.5742
9.3577,529,1.7065
9.3619,540,1.7419
9.3662,505,1.6290
9.3705,481,1.5516
9.3748,505,1.6290
9.3791,543,1.7516
9.3835,538,1.7355
9.3878,493,1.5903
9.3921,480,1.5484
9.3964,514,1.6581
9.4007,540,1.7419
9.4050,519,1.6742
9.4093,488,1.5742
9.4136,499,1.6097
9.4178,539,1.7387
9.4221,551,1.7774
9.4264,525,1.6935
9.4307,517,1.6677
9.4349,560,1.8065
9.4392,603,1.9452
9.4435,584,1.8839
9.4478,532,1.7161
9.4521,512,1.6516
9.4565,539,1.7387
9.4609,563,1.8161
9.4651,537,1.7323
9.4694,500,1.6129
9.4736,501,1.6161
9.4779,536,1.7290
9.4822,543,1.7516
9.4864,504,1.6258
9.4907,478,1.5419
9.4950,505,1.6290
9.4993,541,1.7452
9.5035,533,1.7194
9.5078,492,1.5871
9.5121,483,1.5581
9.5163,520,1.6774
9.5206,545,1.7581
9.5248,520,1.6774
9.5292,483,1.5581
9.5334,487,1.5710
9.5377,512,1.6516
9.5420,489,1.5774
9.5463,410,1.3226
9.5506,353,1.1387
9.5549,360,1.1613
9.5592,428,1.3806
9.5635,554,1.7871
9.5678,728,2.3484
9.5721,961,3.1000
9.5764,1004,3.2387
9.5807,1005,3.2419
9.5850,1004,3.2387
9.5893,1003,3.2355
9.5936,997,3.2161
9.5979,843,2.7194
9.6022,624,2.0129
9.6065,475,1.5323
9.6108,415,1.3387
9.6151,434,1.4000
9.6194,471,1.5194
9.6237,462,1.4903
9.6280,424,1.3677
9.6323,417,1.3452
9.6366,450,1.4516
9.6409,466,1.5032
9.6452,437,1.4097
9.6495,408,1.3161
9.6538,425,1.3710
9.6581,467,1.5065
9.6624,473,1.5258
9.6667,436,1.4065
9.6710,418,1.3484
9.6753,451,1.4548
9.6796,486,1.5677
9.6840,474,1.5290
9.6883,437,1.4097
9.6926,438,1.4129
9.6969,484,1.5613
9.7012,512,1.6516
9.7054,484,1.5613
9.7097,453,1.4613
9.7140,467,1.5065
9.7183,503,1.6226
9.7226,505,1.6290
9.7269,468,1.5097
9.7312,457,1.4742
9.7354,493,1.5903
9.7397,528,1.7032
9.7440,516,1.6645
9.7483,483,1.5581
9.7525,490,1.5806
9.7568,535,1.7258
9.7611,561,1.8097
9.7653,537,1.7323
9.7696,509,1.6419
9.7739,528,1.7032
9.7781,573,1.8484
9.7824,583,1.8806
9.7866,551,1.7774
9.7909,537,1.7323
9.7952,571,1.8419
9.7994,610,1.9677
9.8037,608,1.9613
9.8080,577,1.8613
9.8122,575,1.8548
9.8165,610,1.9677
9.8208,623,2.0097
9.8251,589,1.9000
9.8294,548,1.7677
9.8337,549,1.7710
9.8380,575,1.8548
9.8423,565,1.8226
9.8465,515,1.6613
9.8509,487,1.5710
9.8552,508,1.6387
9.8595,532,1.7161
9.8638,509,1.6419
9.8680,461,1.4871
9.8723,454,1.4645
9.8766,491,1.5839
9.8809,509,1.6419
9.8852,480,1.5484
9.8895,450,1.4516
9.8938,464,1.4968
9.8981,502,1.6194
9.9024,499,1.6097
9.9067,462,1.4903
9.9110,445,1.4355
9.9153,475,1.5323
9.9196,504,1.6258
9.9239,489,1.5774
9.9282,453,1.4613
9.9325,455,1.4677
9.9368,495,1.5968
9.9411,510,1.6452
9.9454,478,1.5419
9.9498,450,1.4516
9.9541,471,1.5194
9.9584,511,1.6484
9.9628,511,1.6484
9.9671,471,1.5194
9.9715,458,1.4774
9.9759,495,1.5968
9.9802,521,1.6806
9.9846,499,1.6097
9.9889,467,1.5065
9.9933,478,1.5419
9.9976,515,1.6613
10.0019,519,1.6742
10.0085,468,1.5097
10.0150,499,1.6097
10.0195,532,1.7161
10.0240,512,1.6516
10.0284,468,1.5097
10.0328,470,1.5161
10.0373,512,1.6516
10.0416,522,1.6839
10.0459,488,1.5742
10.0502,465,1.5000
10.0546,493,1.5903
10.0590,528,1.7032
10.0632,519,1.6742
10.0674,480,1.5484
10.0718,474,1.5290
10.0761,510,1.6452
10.0803,535,1.7258
10.0846,512,1.6516
10.0889,479,1.5452
10.0932,486,1.5677
10.0974,523,1.6871
10.1017,533,1.7194
10.1059,506,1.6323
10.1102,488,1.5742
10.1145,510,1.6452
10.1188,536,1.7290
10.1230,522,1.6839
10.1274,479,1.5452
10.1317,472,1.5226
10.1360,508,1.6387
10.1403,532,1.7161
10.1447,509,1.6419
10.1490,480,1.5484
10.1533,499,1.6097
10.1577,541,1.7452
10.1620,540,1.7419
10.1663,501,1.6161
10.1706,483,1.5581
10.1749,512,1.6516
10.1792,543,1.7516
10.1835,529,1.7065
10.1878,489,1.5774
10.1921,486,1.5677
10.1964,524,1.6903
10.2007,543,1.7516
10.2050,517,1.6677
10.2093,491,1.5839
10.2136,515,1.6613
10.2179,567,1.8290
10.2222,587,1.8935
10.2265,559,1.8032
10.2308,539,1.7387
10.2351,562,1.8129
10.2395,583,1.8806
10.2440,558,1.8000
10.2483,518,1.6710
10.2526,518,1.6710
10.2569,548,1.7677
10.2612,552,1.7806
10.2655,514,1.6581
10.2698,489,1.5774
10.2741,509,1.6419
10.2784,539,1.7387
10.2828,526,1.6968
10.2871,483,1.5581
10.2913,472,1.5226
10.2957,511,1.6484
10.3000,539,1.7387
10.3043,518,1.6710
10.3086,482,1.5548
10.3132,493,1.5903
10.3175,529,1.7065
10.3218,527,1.7000
10.3261,477,1.5387
10.3304,429,1.3839
10.3347,419,1.3516
10.3391,425,1.3710
10.3434,409,1.3194
10.3477,428,1.3806
10.3521,581,1.8742
10.3565,813,2.6226
10.3610,999,3.2226
10.3653,1004,3.2387
10.3696,1003,3.2355
10.3739,1004,3.2387
10.3782,1002,3.2323
10.3825,926,2.9871
10.3869,665,2.1452
10.3912,495,1.5968
10.3955,465,1.5000
10.3998,474,1.5290
10.4041,450,1.4516
10.4084,419,1.3516
10.4127,429,1.3839
10.4170,469,1.5129
10.4213,478,1.5419
10.4256,444,1.4323
10.4299,420,1.3548
10.4342,445,1.4355
10.4385,481,1.5516
10.4429,475,1.5323
10.4472,441,1.4226
10.4515,438,1.4129
10.4558,476,1.5355
10.4601,498,1.6065
10.4644,475,1.5323
10.4687,445,1.4355
10.4730,459,1.4806
10.4773,498,1.6065
10.4816,502,1.6194
10.4859,466,1.5032
10.4902,450,1.4516
10.4945,484,1.5613
10.4988,524,1.6903
10.5031,517,1.6677
10.5074,479,1.5452
10.5117,475,1.5323
10.5160,515,1.6613
10.5203,539,1.7387
10.5246,514,1.6581
10.5289,485,1.5645
10.5332,502,1.6194
10.5375,546,1.7613
10.5423,551,1.7774
10.5467,517,1.6677
10.5510,513,1.6548
10.5553,553,1.7839
10.5596,584,1.8839
10.5639,567,1.8290
10.5682,539,1.7387
10.5725,555,1.7903
10.5768,602,1.9419
10.5811,615,1.9839
10.5854,581,1.8742
10.5897,560,1.8065
10.5940,588,1.8968
10.5983,627,2.0226
10.6026,620,2.0000
10.6069,576,1.8581
10.6112,560,1.8065
10.6155,584,1.8839
10.6198,595,1.9194
10.6241,557,1.7968
10.6284,511,1.6484
10.6327,511,1.6484
10.6371,539,1.7387
10.6414,534,1.7226
10.6457,489,1.5774
10.6500,460,1.4839
10.6543,479,1.5452
10.6586,506,1.6323
10.6629,492,1.5871
10.6672,453,1.4613
10.6715,451,1.4548
10.6758,486,1.5677
10.6801,502,1.6194
10.6844,469,1.5129
10.6887,434,1.4000
10.6930,448,1.4452
10.6973,487,1.5710
10.7016,495,1.5968
10.7059,460,1.4839
10.7102,444,1.4323
10.7145,472,1.5226
10.7188,500,1.6129
10.7231,483,1.5581
10.7274,447,1.4419
10.7317,449,1.4484
10.7360,490,1.5806
10.7403,508,1.6387
10.7446,477,1.5387
10.7490,451,1.4548
10.7533,470,1.5161
10.7576,509,1.6419
10.7618,510,1.6452
10.7661,473,1.5258
10.7705,457,1.4742
10.7748,486,1.5677
10.7790,513,1.6548
10.7834,493,1.5903
10.7877,457,1.4742
10.7920,464,1.4968
10.7963,506,1.6323
10.8006,518,1.6710
10.8049,487,1.5710
10.8092,462,1.4903
10.8135,484,1.5613
10.8178,521,1.6806
10.8221,516,1.6645
10.8264,475,1.5323
10.8308,463,1.4935
10.8351,496,1.6000
10.8394,521,1.6806
10.8438,496,1.6000
10.8481,462,1.4903
10.8523,471,1.5194
10.8566,511,1.6484
10.8609,520,1.6774
10.8652,487,1.5710
10.8694,465,1.5000
10.8737,490,1.5806
10.8780,528,1.7032
10.8822,524,1.6903
10.8865,483,1.5581
10.8908,470,1.5161
10.8951,503,1.6226
10.8994,528,1.7032
10.9037,507,1.6355
10.9079,474,1.5290
10.9122,482,1.5548
10.9165,520,1.6774
10.9207,530,1.7097
10.9250,494,1.5935
10.9293,469,1.5129
10.9335,490,1.5806
10.9378,526,1.6968
10.9421,522,1.6839
10.9463,486,1.5677
10.9508,479,1.5452
10.9552,516,1.6645
10.9596,541,1.7452
10.9639,517,1.6677
10.9683,487,1.5710
10.9726,500,1.6129
10.9769,539,1.7387
10.9811,547,1.7645
10.9854,519,1.6742
10.9897,520,1.6774
10.9940,562,1.8129
10.9983,594,1.9161
11.0026,575,1.8548
11.0069,526,1.6968
11.0112,511,1.6484
11.0155,543,1.7516
11.0198,558,1.8000
11.0241,527,1.7000
11.0284,487,1.5710
11.0328,495,1.5968
11.0371,530,1.7097
11.0414,529,1.7065
11.0456,489,1.5774
11.0499,473,1.5258
11.0541,505,1.6290
11.0584,534,1.7226
11.0627,519,1.6742
11.0669,478,1.5419
11.0712,476,1.5355
11.0755,514,1.6581
11.0797,531,1.7129
11.0840,500,1.6129
11.0883,462,1.4903
11.0929,464,1.4968
11.0973,476,1.5355
11.1015,434,1.4000
11.1058,366,1.1806
11.1101,337,1.0871
11.1143,402,1.2968
11.1186,563,1.8161
11.1228,749,2.4161
11.1271,938,3.0258
11.1314,1004,3.2387
11.1356,1006,3.2452
11.1400,1005,3.2419
11.1443,1003,3.2355
11.1485,994,3.2065
11.1529,797,2.5710
11.1572,603,1.9452
11.1614,489,1.5774
11.1657,412,1.3290
11.1700,391,1.2613
11.1743,429,1.3839
11.1786,466,1.5032
11.1829,451,1.4548
11.1872,412,1.3290
11.1915,412,1.3290
11.1958,450,1.4516
11.2001,465,1.5000
11.2044,433,1.3968
11.2087,408,1.3161
11.2130,432,1.3935
11.2173,472,1.5226
11.2216,470,1.5161
11.2258,433,1.3968
11.2302,422,1.3613
11.2345,459,1.4806
11.2388,489,1.5774
11.2431,473,1.5258
11.2474,438,1.4129
11.2519,447,1.4419
11.2562,488,1.5742
11.2606,500,1.6129
11.2649,468,1.5097
11.2692,448,1.4452
11.2735,473,1.5258
11.2778,507,1.6355
11.2820,503,1.6226
11.2863,465,1.5000
11.2906,458,1.4774
11.2949,495,1.5968
11.2992,523,1.6871
11.3035,504,1.6258
11.3078,475,1.5323
11.3121,492,1.5871
11.3164,536,1.7290
11.3207,548,1.7677
11.3250,518,1.6710
11.3292,502,1.6194
11.3335,534,1.7226
11.3378,575,1.8548
11.3421,571,1.8419
11.3464,540,1.7419
11.3506,545,1.7581
11.3549,588,1.8968
11.3591,616,1.9871
11.3634,592,1.9097
11.3677,561,1.8097
11.3720,571,1.8419
11.3762,604,1.9484
11.3805,605,1.9516
11.3848,558,1.8000
11.3890,522,1.6839
11.3933,535,1.7258
11.3976,559,1.8032
11.4018,543,1.7516
11.4061,493,1.5903
11.4104,476,1.5355
11.4146,505,1.6290
11.4189,523,1.6871
11.4232,494,1.5935
11.4275,453,1.4613
11.4317,455,1.4677
11.4361,496,1.6000
11.4405,503,1.6226
11.4448,468,1.5097
11.4491,450,1.4516
11.4534,475,1.5323
11.4578,506,1.6323
11.4621,491,1.5839
11.4664,450,1.4516
11.4707,450,1.4516
11.4750,490,1.5806
11.4793,512,1.6516
11.4836,483,1.5581
11.4879,447,1.4419
11.4922,463,1.4935
11.4965,506,1.6323
11.5008,511,1.6484
11.5052,469,1.5129
11.5095,449,1.4484
11.5137,479,1.5452
11.5180,510,1.6452
11.5223,498,1.6065
11.5267,461,1.4871
11.5310,463,1.4935
11.5353,505,1.6290
11.5396,524,1.6903
11.5439,491,1.5839
11.5481,460,1.4839
11.5524,478,1.5419
11.5567,519,1.6742
11.5609,523,1.6871
11.5652,483,1.5581
11.5695,464,1.4968
11.5737,494,1.5935
11.5780,526,1.6968
11.5823,513,1.6548
11.5865,472,1.5226
11.5908,470,1.5161
11.5951,508,1.6387
11.5994,529,1.7065
11.6036,499,1.6097
11.6079,467,1.5065
11.6122,484,1.5613
11.6165,525,1.6935
11.6208,528,1.7032
11.6251,492,1.5871
11.6294,473,1.5258
11.6336,500,1.6129
11.6379,530,1.7097
11.6422,512,1.6516
11.6466,470,1.5161
11.6509,471,1.5194
11.6551,511,1.6484
11.6595,531,1.7129
11.6637,505,1.6290
11.6680,476,1.5355
11.6723,493,1.5903
11.6767,529,1.7065
11.6810,527,1.7000
11.6853,486,1.5677
11.6896,472,1.5226
11.6939,508,1.6387
11.6982,540,1.7419
11.7026,522,1.6839
11.7069,483,1.5581
11.7112,487,1.5710
11.7155,527,1.7000
11.7198,544,1.7548
11.7241,513,1.6548
11.7284,487,1.5710
11.7327,510,1.6452
11.7371,548,1.7677
11.7414,550,1.7742
11.7457,524,1.6903
11.7501,535,1.7258
11.7544,576,1.8581
11.7587,592,1.9097
11.7630,560,1.8065
11.7673,510,1.6452
11.7716,515,1.6613
11.7759,554,1.7871
11.7802,561,1.8097
11.7845,520,1.6774
11.7889,489,1.5774
11.7932,512,1.6516
11.7975,544,1.7548
11.8019,530,1.7097
11.8062,490,1.5806
11.8105,487,1.5710
11.8148,523,1.6871
11.8191,536,1.7290
11.8234,501,1.6161
11.8277,465,1.5000
11.8320,482,1.5548
11.8364,524,1.6903
11.8407,528,1.7032
11.8451,486,1.5677
11.8494,463,1.4935
11.8538,478,1.5419
11.8582,465,1.5000
11.8625,408,1.3161
11.8668,346,1.1161
11.8711,354,1.1419
11.8753,479,1.5452
11.8796,677,2.1839
11.8838,869,2.8032
11.8881,1000,3.2258
11.8924,1004,3.2387
11.8967,1004,3.2387
11.9009,1005,3.2419
11.9052,1002,3.2323
11.9094,913,2.9452
11.9137,688,2.2194
11.9180,550,1.7742
11.9222,469,1.5129
11.9265,412,1.3290
11.9309,411,1.3258
11.9352,455,1.4677
11.9395,474,1.5290
11.9439,441,1.4226
11.9482,406,1.3097
11.9525,420,1.3548
11.9568,459,1.4806
11.9611,457,1.4742
11.9653,419,1.3516
11.9696,409,1.3194
11.9739,446,1.4387
11.9782,476,1.5355
11.9825,455,1.4677
11.9868,422,1.3613
11.9911,430,1.3871
11.9954,475,1.5323
11.9997,490,1.5806
12.0040,455,1.4677
12.0083,431,1.3903
12.0126,461,1.4871
12.0169,504,1.6258
12.0212,501,1.6161
12.0255,460,1.4839
12.0298,451,1.4548
12.0341,490,1.5806
12.0384,519,1.6742
12.0427,496,1.6000
12.0470,461,1.4871
12.0513,472,1.5226
12.0556,518,1.6710
12.0599,533,1.7194
12.0641,501,1.6161
12.0684,482,1.5548
12.0727,513,1.6548
12.0770,552,1.7806
12.0813,546,1.7613
12.0856,513,1.6548
12.0899,519,1.6742
12.0942,569,1.8355
12.0986,595,1.9194
12.1028,568,1.8323
12.1071,533,1.7194
12.1114,549,1.7710
12.1157,596,1.9226
12.1200,608,1.9613
12.1243,575,1.8548
12.1286,553,1.7839
12.1329,579,1.8677
12.1372,609,1.9645
12.1415,590,1.9032
12.1458,537,1.7323
12.1502,521,1.6806
12.1547,551,1.7774
12.1592,558,1.8000
12.1635,515,1.6613
12.1679,478,1.5419
12.1722,492,1.5871
12.1765,526,1.6968
12.1809,514,1.6581
12.1852,462,1.4903
12.1896,443,1.4290
12.1939,475,1.5323
12.1983,500,1.6129
12.2026,477,1.5387
12.2069,444,1.4323
12.2112,455,1.4677
12.2156,495,1.5968
12.2199,500,1.6129
12.2242,459,1.4806
12.2286,439,1.4161
12.2329,471,1.5194
12.2373,506,1.6323
12.2417,491,1.5839
12.2460,450,1.4516
12.2503,450,1.4516
12.2546,492,1.5871
12.2589,513,1.6548
12.2632,484,1.5613
12.2675,456,1.4710
12.2718,475,1.5323
12.2761,519,1.6742
12.2804,520,1.6774
12.2847,476,1.5355
12.2890,456,1.4710
12.2933,489,1.5774
12.2976,522,1.6839
12.3019,504,1.6258
12.3062,460,1.4839
12.3105,460,1.4839
12.3147,500,1.6129
12.3191,517,1.6677
12.3234,487,1.5710
12.3277,460,1.4839
12.3320,482,1.5548
12.3364,522,1.6839
12.3408,519,1.6742
12.3451,476,1.5355
12.3494,465,1.5000
12.3537,503,1.6226
12.3580,530,1.7097
12.3623,509,1.6419
12.3666,476,1.5355
12.3709,486,1.5677
12.3752,527,1.7000
12.3794,534,1.7226
12.3838,491,1.5839
12.3880,467,1.5065
12.3923,493,1.5903
12.3967,530,1.7097
12.4010,519,1.6742
12.4053,476,1.5355
12.4096,466,1.5032
12.4139,504,1.6258
12.4182,530,1.7097
12.4225,505,1.6290
12.4268,471,1.5194
12.4311,484,1.5613
12.4354,527,1.7000
12.4397,536,1.7290
12.4440,497,1.6032
12.4483,474,1.5290
12.4526,503,1.6226
12.4570,541,1.7452
12.4613,530,1.7097
12.4656,491,1.5839
12.4700,489,1.5774
12.4743,527,1.7000
12.4786,544,1.7548
12.4830,512,1.6516
12.4873,481,1.5516
12.4916,499,1.6097
12.4959,541,1.7452
12.5003,541,1.7452
12.5046,499,1.6097
12.5090,488,1.5742
12.5133,530,1.7097
12.5176,577,1.8613
12.5219,575,1.8548
12.5263,541,1.7452
12.5306,537,1.7323
12.5349,573,1.8484
12.5393,574,1.8516
12.5438,530,1.7097
12.5481,505,1.6290
12.5524,530,1.7097
12.5568,560,1.8065
12.5611,543,1.7516
12.5654,496,1.6000
12.5697,486,1.5677
12.5740,521,1.6806
12.5783,542,1.7484
12.5825,514,1.6581
12.5869,482,1.5548
12.5911,498,1.6065
12.5954,535,1.7258
12.5997,539,1.7387
12.6040,498,1.6065
12.6083,474,1.5290
12.6126,499,1.6097
12.6169,528,1.7032
12.6212,507,1.6355
12.6256,450,1.4516
12.6299,411,1.3258
12.6341,415,1.3387
12.6384,411,1.3258
12.6427,381,1.2290
12.6471,417,1.3452
12.6514,601,1.9387
12.6557,861,2.7774
12.6599,1001,3.2290
12.6642,1003,3.2355
12.6685,1003,3.2355
12.6728,1003,3.2355
12.6771,1001,3.2290
12.6814,946,3.0516
12.6857,680,2.1935
12.6900,509,1.6419
12.6943,476,1.5355
12.6986,468,1.5097
12.7029,431,1.3903
12.7072,403,1.3000
12.7115,422,1.3613
12.7158,461,1.4871
12.7201,460,1.4839
12.7244,421,1.3581
12.7287,408,1.3161
12.7330,444,1.4323
12.7372,476,1.5355
12.7415,459,1.4806
12.7458,421,1.3581
12.7502,424,1.3677
12.7547,469,1.5129
12.7591,487,1.5710
12.7636,453,1.4613
12.7679,429,1.3839
12.7723,458,1.4774
12.7766,497,1.6032
12.7810,488,1.5742
12.7853,450,1.4516
12.7896,449,1.4484
12.7940,493,1.5903
12.7983,518,1.6710
12.8026,488,1.5742
12.8070,454,1.4645
12.8113,472,1.5226
12.8156,517,1.6677
12.8200,522,1.6839
12.8243,487,1.5710
12.8286,477,1.5387
12.8330,514,1.6581
12.8373,545,1.7581
12.8416,531,1.7129
12.8459,498,1.6065
12.8503,512,1.6516
12.8549,561,1.8097
12.8593,578,1.8645
12.8636,548,1.7677
12.8678,531,1.7129
12.8722,565,1.8226
12.8764,606,1.9548
12.8808,603,1.9452
12.8851,565,1.8226
12.8894,560,1.8065
12.8937,602,1.9419
12.8980,630,2.0323
12.9023,604,1.9484
12.9065,566,1.8258
12.9109,570,1.8387
12.9152,597,1.9258
12.9195,587,1.8935
12.9238,534,1.7226
12.9280,499,1.6097
12.9324,518,1.6710
12.9368,543,1.7516
12.9411,520,1.6774
12.9454,471,1.5194
12.9497,464,1.4968
12.9541,498,1.6065
12.9584,510,1.6452
12.9626,477,1.5387
12.9669,444,1.4323
12.9712,463,1.4935
12.9755,501,1.6161
12.9798,500,1.6129
12.9841,457,1.4742
12.9884,440,1.4194
12.9927,473,1.5258
12.9971,503,1.6226
13.0014,483,1.5581
13.0057,441,1.4226
13.0100,443,1.4290
13.0143,487,1.5710
13.0186,505,1.6290
13.0229,475,1.5323
13.0272,449,1.4484
13.0315,469,1.5129
13.0358,508,1.6387
13.0400,503,1.6226
13.0443,461,1.4871
13.0487,452,1.4581
13.0531,492,1.5871
13.0575,521,1.6806
13.0620,498,1.6065
13.0663,463,1.4935
13.0706,474,1.5290
13.0750,514,1.6581
13.0793,518,1.6710
13.0836,478,1.5419
13.0880,459,1.4806
13.0923,491,1.5839
13.0967,524,1.6903
13.1010,508,1.6387
13.1053,466,1.5032
13.1097,468,1.5097
13.1140,511,1.6484
13.1183,527,1.7000
13.1226,493,1.5903
13.1270,464,1.4968
13.1313,486,1.5677
13.1356,528,1.7032
13.1400,526,1.6968
13.1443,483,1.5581
13.1487,469,1.5129
13.1531,502,1.6194
13.1574,528,1.7032
13.1617,507,1.6355
13.1660,473,1.5258
13.1703,482,1.5548
13.1746,522,1.6839
13.1789,532,1.7161
13.1832,497,1.6032
13.1875,471,1.5194
13.1918,493,1.5903
13.1961,529,1.7065
13.2004,523,1.6871
13.2047,484,1.5613
13.2090,478,1.5419
13.2133,515,1.6613
13.2176,538,1.7355
13.2219,511,1.6484
13.2261,475,1.5323
13.2304,486,1.5677
13.2347,527,1.7000
13.2390,537,1.7323
13.2433,498,1.6065
13.2476,476,1.5355
13.2519,507,1.6355
13.2563,546,1.7613
13.2606,539,1.7387
13.2649,498,1.6065
13.2693,496,1.6000
13.2736,544,1.7548
13.2779,580,1.8710
13.2823,569,1.8355
13.2866,540,1.7419
13.2910,546,1.7613
13.2953,575,1.8548
13.2996,565,1.8226
13.3039,518,1.6710
13.3083,503,1.6226
13.3127,537,1.7323
13.3170,555,1.7903
13.3213,522,1.6839
13.3257,478,1.5419
13.3300,484,1.5613
13.3343,525,1.6935
13.3387,534,1.7226
13.3430,498,1.6065
13.3473,475,1.5323
13.3516,501,1.6161
13.3560,538,1.7355
13.3603,528,1.7032
13.3646,488,1.5742
13.3689,480,1.5484
13.3732,514,1.6581
13.3775,531,1.7129
13.3817,496,1.6000
13.3860,445,1.4355
13.3903,420,1.3548
13.3946,428,1.3806
13.3989,415,1.3387
13.4032,385,1.2419
13.4075,446,1.4387
13.4118,646,2.0839
13.4161,873,2.8161
13.4204,1001,3.2290
13.4247,1005,3.2419
13.4290,1002,3.2323
13.4333,1002,3.2323
13.4376,997,3.2161
13.4420,832,2.6839
13.4463,585,1.8871
13.4506,474,1.5290
13.4549,471,1.5194
13.4593,465,1.5000
13.4636,430,1.3871
13.4679,417,1.3452
13.4723,451,1.4548
13.4766,482,1.5548
13.4810,460,1.4839
13.4853,419,1.3516
13.4896,422,1.3613
13.4940,465,1.5000
13.4983,480,1.5484
13.5026,449,1.4484
13.5070,426,1.3742
13.5113,452,1.4581
13.5156,490,1.5806
13.5200,486,1.5677
13.5243,449,1.4484
13.5286,447,1.4419
13.5329,486,1.5677
13.5375,510,1.6452
13.5418,483,1.5581
13.5461,452,1.4581
13.5504,471,1.5194
13.5547,515,1.6613
13.5590,518,1.6710
13.5633,480,1.5484
13.5676,465,1.5000
13.5719,501,1.6161
13.5762,539,1.7387
13.5805,528,1.7032
13.5848,490,1.5806
13.5891,491,1.5839
13.5934,534,1.7226
13.5978,557,1.7968
13.6021,533,1.7194
13.6064,508,1.6387
13.6109,533,1.7194
13.6151,576,1.8581
13.6195,577,1.8613
13.6237,542,1.7484
13.6280,535,1.7258
13.6323,576,1.8581
13.6366,611,1.9710
13.6409,600,1.9355
13.6453,568,1.8323
13.6496,571,1.8419
13.6540,612,1.9742
13.6585,620,2.0000
13.6628,583,1.8806
13.6671,553,1.7839
13.6714,572,1.8452
13.6756,597,1.9258
13.6799,577,1.8613
13.6841,523,1.6871
13.6884,502,1.6194
13.6927,528,1.7032
13.6969,542,1.7484
13.7012,507,1.6355
13.7055,461,1.4871
13.7098,463,1.4935
13.7140,501,1.6161
13.7183,507,1.6355
13.7225,466,1.5032
13.7268,439,1.4161
13.7311,464,1.4968
13.7354,504,1.6258
13.7396,497,1.6032
13.7439,455,1.4677
13.7482,441,1.4226
13.7524,475,1.5323
13.7567,500,1.6129
13.7610,478,1.5419
13.7653,442,1.4258
13.7696,447,1.4419
13.7738,490,1.5806
13.7781,502,1.6194
13.7824,469,1.5129
13.7867,445,1.4355
13.7909,470,1.5161
13.7952,510,1.6452
13.7995,507,1.6355
13.8037,467,1.5065
13.8080,452,1.4581
13.8123,488,1.5742
13.8167,518,1.6710
13.8209,498,1.6065
13.8252,462,1.4903
13.8294,469,1.5129
13.8337,513,1.6548
13.8380,528,1.7032
13.8423,492,1.5871
13.8465,461,1.4871
13.8509,482,1.5548
13.8553,519,1.6742
13.8596,511,1.6484
13.8639,471,1.5194
13.8682,464,1.4968
13.8725,503,1.6226
13.8768,530,1.7097
13.8811,507,1.6355
13.8854,469,1.5129
13.8897,476,1.5355
13.8940,521,1.6806
13.8983,530,1.7097
13.9026,494,1.5935
13.9069,470,1.5161
13.9112,492,1.5871
13.9155,525,1.6935
13.9198,514,1.6581
13.9241,476,1.5355
13.9284,471,1.5194
13.9327,508,1.6387
13.9370,528,1.7032
13.9413,502,1.6194
13.9456,469,1.5129
13.9500,484,1.5613
13.9545,531,1.7129
13.9616,500,1.6129
13.9659,470,1.5161
13.9702,488,1.5742
13.9745,529,1.7065
13.9787,534,1.7226
13.9830,500,1.6129
13.9873,483,1.5581
13.9918,514,1.6581
13.9961,539,1.7387
14.0004,519,1.6742
14.0047,488,1.5742
14.0090,497,1.6032
14.0133,539,1.7387
14.0175,555,1.7903
14.0218,525,1.6935
14.0261,508,1.6387
14.0304,546,1.7613
14.0346,594,1.9161
14.0389,587,1.8935
14.0432,537,1.7323
14.0475,513,1.6548
14.0518,539,1.7387
14.0560,566,1.8258
14.0603,544,1.7548
14.0646,501,1.6161
14.0690,495,1.5968
14.0733,530,1.7097
14.0775,543,1.7516
14.0818,510,1.6452
14.0861,480,1.5484
14.0905,496,1.6000
14.0948,529,1.7065
14.0991,522,1.6839
14.1034,479,1.5452
14.1077,468,1.5097
14.1120,504,1.6258
14.1163,533,1.7194
14.1206,513,1.6548
14.1249,477,1.5387
14.1292,480,1.5484
14.1336,509,1.6419
14.1379,487,1.5710
14.1422,406,1.3097
14.1465,347,1.1194
14.1508,355,1.1452
14.1551,435,1.4032
14.1594,574,1.8516
14.1637,754,2.4323
14.1680,985,3.1774
14.1723,1002,3.2323
14.1767,1005,3.2419
14.1810,1005,3.2419
14.1853,1001,3.2290
14.1896,976,3.1484
14.1939,765,2.4677
14.1982,572,1.8452
14.2025,451,1.4548
14.2068,403,1.3000
14.2111,429,1.3839
14.2154,468,1.5097
14.2197,455,1.4677
14.2241,415,1.3387
14.2283,411,1.3258
14.2327,450,1.4516
14.2370,468,1.5097
14.2413,438,1.4129
14.2456,408,1.3161
14.2499,425,1.3710
14.2542,466,1.5032
14.2586,467,1.5065
14.2629,431,1.3903
14.2672,418,1.3484
14.2715,454,1.4645
14.2758,488,1.5742
14.2801,472,1.5226
14.2844,434,1.4000
14.2887,439,1.4161
14.2930,483,1.5581
14.2974,502,1.6194
14.3016,471,1.5194
14.3059,445,1.4355
14.3102,467,1.5065
14.3146,508,1.6387
14.3189,510,1.6452
14.3232,472,1.5226
14.3275,461,1.4871
14.3318,499,1.6097
14.3361,530,1.7097
14.3404,512,1.6516
14.3447,480,1.5484
14.3490,491,1.5839
14.3533,536,1.7290
14.3577,551,1.7774
14.3620,521,1.6806
14.3663,502,1.6194
14.3706,534,1.7226
14.3749,576,1.8581
14.3792,577,1.8613
14.3835,542,1.7484
14.3878,540,1.7419
14.3921,579,1.8677
14.3964,609,1.9645
14.4008,587,1.8935
14.4051,557,1.7968
14.4094,569,1.8355
14.4137,609,1.9645
14.4180,615,1.9839
14.4223,568,1.8323
14.4267,534,1.7226
14.4310,549,1.7710
14.4353,571,1.8419
14.4396,547,1.7645
14.4439,495,1.5968
14.4482,479,1.5452
14.4525,505,1.6290
14.4568,516,1.6645
14.4611,485,1.5645
14.4655,452,1.4581
14.4698,464,1.4968
14.4741,499,1.6097
14.4784,499,1.6097
14.4827,459,1.4806
14.4870,444,1.4323
14.4913,476,1.5355
14.4956,505,1.6290
14.5000,492,1.5871
14.5043,454,1.4645
14.5086,452,1.4581
14.5129,489,1.5774
14.5172,504,1.6258
14.5215,474,1.5290
14.5258,449,1.4484
14.5302,468,1.5097
14.5345,506,1.6323
14.5388,502,1.6194
14.5431,463,1.4935
14.5474,452,1.4581
14.5517,488,1.5742
14.5568,513,1.6548
14.5615,481,1.5516
14.5660,457,1.4742
14.5703,481,1.5516
14.5746,517,1.6677
14.5789,512,1.6516
14.5831,474,1.5290
14.5874,465,1.5000
14.5917,499,1.6097
14.5960,525,1.6935
14.6003,503,1.6226
14.6045,466,1.5032
14.6088,472,1.5226
14.6131,514,1.6581
14.6174,527,1.7000
14.6216,494,1.5935
14.6263,470,1.5161
14.6306,493,1.5903
14.6348,526,1.6968
14.6391,516,1.6645
14.6434,480,1.5484
14.6477,473,1.5258
14.6519,507,1.6355
14.6562,530,1.7097
14.6605,507,1.6355
14.6648,473,1.5258
14.6691,486,1.5677
14.6734,526,1.6968
14.6777,530,1.7097
14.6820,491,1.5839
14.6864,467,1.5065
14.6907,494,1.5935
14.6950,529,1.7065
14.6993,519,1.6742
14.7036,481,1.5516
14.7079,477,1.5387
14.7122,516,1.6645
14.7165,534,1.7226
14.7209,504,1.6258
14.7252,472,1.5226
14.7296,488,1.5742
14.7339,527,1.7000
14.7382,529,1.7065
14.7425,491,1.5839
14.7468,476,1.5355
14.7511,508,1.6387
14.7554,538,1.7355
14.7597,525,1.6935
14.7640,489,1.5774
14.7683,489,1.5774
14.7726,524,1.6903
14.7770,535,1.7258
14.7813,502,1.6194
14.7856,475,1.5323
14.7899,498,1.6065
14.7942,540,1.7419
14.7985,542,1.7484
14.8027,502,1.6194
14.8070,489,1.5774
14.8113,527,1.7000
14.8157,570,1.8387
14.8200,575,1.8548
14.8243,547,1.7645
14.8286,542,1.7484
14.8329,570,1.8387
14.8372,574,1.8516
14.8415,535,1.7258
14.8458,508,1.6387
14.8501,527,1.7000
14.8545,551,1.7774
14.8589,532,1.7161
14.8634,488,1.5742
14.8678,484,1.5613
14.8721,518,1.6710
14.8763,536,1.7290
14.8806,507,1.6355
14.8849,477,1.5387
14.8892,489,1.5774
14.8935,528,1.7032
14.8977,535,1.7258
14.9020,500,1.6129
14.9063,480,1.5484
14.9106,505,1.6290
14.9148,532,1.7161
14.9191,513,1.6548
14.9234,465,1.5000
14.9277,426,1.3742
14.9319,421,1.3581
14.9362,412,1.3290
14.9405,374,1.2065
14.9448,389,1.2548
14.9490,553,1.7839
14.9533,816,2.6323
14.9576,1003,3.2355
14.9619,1003,3.2355
14.9662,1004,3.2387
14.9705,1003,3.2355
14.9748,1004,3.2387
14.9791,978,3.1548
14.9834,717,2.3129
14.9877,518,1.6710
14.9920,473,1.5258
14.9963,468,1.5097
15.0006,437,1.4097
15.0050,408,1.3161
15.0098,432,1.3935
15.0142,470,1.5161
15.0268,408,1.3161
15.0313,443,1.4290
15.0358,469,1.5129
15.0402,443,1.4290
15.0446,411,1.3258
15.0489,425,1.3710
15.0532,467,1.5065
15.0575,477,1.5387
15.0617,446,1.4387
15.0661,429,1.3839
15.0703,456,1.4710
15.0746,491,1.5839
15.0788,481,1.5516
15.0830,445,1.4355
15.0873,443,1.4290
15.0915,486,1.5677
15.0958,511,1.6484
15.1000,489,1.5774
15.1042,456,1.4710
15.1084,464,1.4968
15.1127,505,1.6290
15.1169,518,1.6710
15.1211,487,1.5710
15.1253,465,1.5000
15.1296,491,1.5839
15.1338,534,1.7226
15.1381,536,1.7290
15.1423,503,1.6226
15.1466,493,1.5903
15.1508,530,1.7097
15.1550,562,1.8129
15.1593,554,1.7871
15.1635,520,1.6774
15.1678,528,1.7032
15.1720,571,1.8419
15.1763,596,1.9226
15.1806,574,1.8516
15.1849,553,1.7839
15.1892,577,1.8613
15.1935,618,1.9935
15.1978,616,1.9871
15.2021,575,1.8548
15.2064,555,1.7903
15.2107,579,1.8677
15.2149,597,1.9258
15.2192,569,1.8355
15.2235,520,1.6774
15.2278,508,1.6387
15.2321,531,1.7129
15.2364,536,1.7290
15.2408,497,1.6032
15.2451,464,1.4968
15.2494,476,1.5355
15.2537,508,1.6387
15.2579,503,1.6226
15.2622,460,1.4839
15.2665,443,1.4290
15.2708,473,1.5258
15.2751,504,1.6258
15.2793,488,1.5742
15.2836,448,1.4452
15.2879,446,1.4387
15.2922,481,1.5516
15.2964,497,1.6032
15.3007,469,1.5129
15.3050,445,1.4355
15.3093,465,1.5000
15.3135,503,1.6226
15.3178,505,1.6290
15.3221,468,1.5097
15.3263,451,1.4548
15.3306,481,1.5516
15.3349,513,1.6548
15.3393,499,1.6097
15.3436,461,1.4871
15.3479,465,1.5000
15.3522,504,1.6258
15.3565,520,1.6774
15.3608,488,1.5742
15.3651,458,1.4774
15.3693,476,1.5355
15.3736,512,1.6516
15.3779,511,1.6484
15.3822,478,1.5419
15.3865,466,1.5032
15.3908,499,1.6097
15.3951,527,1.7000
15.3993,511,1.6484
15.4036,473,1.5258
15.4079,476,1.5355
15.4121,517,1.6677
15.4164,534,1.7226
15.4208,501,1.6161
15.4250,472,1.5226
15.4293,491,1.5839
15.4336,526,1.6968
15.4379,522,1.6839
15.4422,486,1.5677
15.4465,475,1.5323
15.4508,507,1.6355
15.4552,530,1.7097
15.4596,507,1.6355
15.4640,473,1.5258
15.4683,484,1.5613
15.4727,526,1.6968
15.4770,533,1.7194
15.4814,497,1.6032
15.4857,476,1.5355
15.4900,505,1.6290
15.4944,539,1.7387
15.4987,527,1.7000
15.5030,486,1.5677
15.5074,487,1.5710
15.5117,531,1.7129
15.5161,546,1.7613
15.5204,511,1.6484
15.5247,476,1.5355
15.5291,495,1.5968
15.5334,532,1.7161
15.5377,531,1.7129
15.5420,490,1.5806
15.5464,476,1.5355
15.5507,509,1.6419
15.5550,537,1.7323
15.5594,516,1.6645
15.5637,481,1.5516
15.5680,489,1.5774
15.5723,528,1.7032
15.5767,537,1.7323
15.5810,504,1.6258
15.5852,479,1.5452
15.5895,506,1.6323
15.5938,546,1.7613
15.5981,544,1.7548
15.6024,507,1.6355
15.6067,496,1.6000
15.6110,525,1.6935
15.6153,547,1.7645
15.6196,534,1.7226
15.6239,520,1.6774
15.6282,546,1.7613
15.6325,586,1.8903
15.6368,587,1.8935
15.6411,545,1.7581
15.6454,517,1.6677
15.6496,540,1.7419
15.6539,572,1.8452
15.6582,555,1.7903
15.6625,504,1.6258
15.6668,491,1.5839
15.6711,526,1.6968
15.6754,545,1.7581
15.6798,516,1.6645
15.6841,483,1.5581
15.6884,492,1.5871
15.6927,529,1.7065
15.6971,533,1.7194
15.7014,496,1.6000
15.7057,477,1.5387
15.7101,507,1.6355
15.7144,540,1.7419
15.7187,526,1.6968
15.7231,486,1.5677
15.7274,479,1.5452
15.7317,498,1.6065
15.7360,473,1.5258
15.7404,409,1.3194
15.7447,365,1.1774
15.7491,400,1.2903
15.7536,541,1.7452
15.7580,716,2.3097
15.7624,880,2.8387
15.7668,1001,3.2290
15.7712,1004,3.2387
15.7755,1004,3.2387
15.7799,1002,3.2323
15.7842,983,3.1710
15.7885,784,2.5290
15.7928,612,1.9742
15.7970,510,1.6452
15.8014,436,1.4065
15.8056,410,1.3226
15.8099,444,1.4323
15.8142,482,1.5548
15.8185,472,1.5226
15.8228,435,1.4032
15.8271,429,1.3839
15.8315,459,1.4806
15.8358,474,1.5290
15.8400,447,1.4419
15.8444,423,1.3645
15.8487,446,1.4387
15.8529,487,1.5710
15.8572,490,1.5806
15.8615,452,1.4581
15.8658,437,1.4097
15.8701,467,1.5065
15.8744,497,1.6032
15.8787,485,1.5645
15.8831,453,1.4613
15.8874,460,1.4839
15.8917,500,1.6129
15.8960,516,1.6645
15.9004,489,1.5774
15.9047,465,1.5000
15.9090,488,1.5742
15.9134,524,1.6903
15.9177,518,1.6710
15.9220,479,1.5452
15.9264,475,1.5323
15.9307,515,1.6613
15.9350,544,1.7548
15.9395,526,1.6968
15.9438,497,1.6032
15.9482,516,1.6645
15.9525,562,1.8129
15.9569,575,1.8548
15.9612,541,1.7452
15.9655,526,1.6968
15.9699,558,1.8000
15.9742,595,1.9194
15.9785,589,1.9000
15.9828,558,1.8000
15.9871,562,1.8129
15.9914,603,1.9452
15.9957,622,2.0065
16.0000,594,1.9161
16.0043,570,1.8387
16.0086,584,1.8839
16.0129,617,1.9903
16.0172,610,1.9677
16.0214,561,1.8097
16.0257,529,1.7065
16.0301,547,1.7645
16.0343,563,1.8161
16.0386,540,1.7419
16.0429,492,1.5871
16.0472,483,1.5581
16.0515,510,1.6452
16.0558,518,1.6710
16.0601,482,1.5548
16.0644,449,1.4484
16.0687,463,1.4935
16.0730,496,1.6000
16.0773,492,1.5871
16.0816,450,1.4516
16.0860,435,1.4032
16.0903,467,1.5065
16.0946,496,1.6000
16.0989,476,1.5355
16.1033,440,1.4194
16.1076,447,1.4419
16.1119,488,1.5742
16.1163,503,1.6226
16.1206,467,1.5065
16.1249,446,1.4387
16.1293,471,1.5194
16.1336,505,1.6290
16.1379,496,1.6000
16.1423,460,1.4839
16.1466,455,1.4677
16.1510,492,1.5871
16.1553,512,1.6516
16.1596,486,1.5677
16.1640,457,1.4742
16.1683,472,1.5226
16.1726,508,1.6387
16.1770,510,1.6452
16.1813,475,1.5323
16.1856,462,1.4903
16.1899,494,1.5935
16.1942,524,1.6903
16.1985,507,1.6355
16.2028,471,1.5194
16.2071,472,1.5226
16.2114,513,1.6548
16.2156,528,1.7032
16.2199,497,1.6032
16.2242,469,1.5129
16.2285,486,1.5677
16.2328,522,1.6839
16.2371,522,1.6839
16.2414,485,1.5645
16.2457,471,1.5194
16.2500,500,1.6129
16.2543,525,1.6935
16.2586,506,1.6323
16.2629,469,1.5129
16.2672,474,1.5290
16.2714,517,1.6677
16.2757,531,1.7129
16.2800,497,1.6032
16.2844,465,1.5000
16.2887,485,1.5645
16.2931,521,1.6806
16.2974,518,1.6710
16.3017,481,1.5516
16.3060,472,1.5226
16.3104,507,1.6355
16.3147,532,1.7161
16.3190,510,1.6452
16.3233,477,1.5387
16.3277,491,1.5839
16.3320,533,1.7194
16.3363,541,1.7452
16.3407,502,1.6194
16.3450,478,1.5419
16.3494,505,1.6290
16.3539,536,1.7290
16.3583,522,1.6839
16.3627,488,1.5742
16.3671,490,1.5806
16.3714,530,1.7097
16.3757,543,1.7516
16.3801,513,1.6548
16.3844,498,1.6065
16.3887,538,1.7355
16.3930,590,1.9032
16.3973,587,1.8935
16.4022,536,1.7290
16.4066,524,1.6903
16.4109,553,1.7839
16.4152,567,1.8290
16.4195,534,1.7226
16.4238,501,1.6161
16.4281,509,1.6419
16.4324,540,1.7419
16.4367,539,1.7387
16.4410,500,1.6129
16.4453,480,1.5484
16.4496,508,1.6387
16.4539,536,1.7290
16.4582,518,1.6710
16.4625,477,1.5387
16.4668,477,1.5387
16.4711,515,1.6613
16.4754,530,1.7097
16.4797,496,1.6000
16.4840,466,1.5032
16.4883,483,1.5581
16.4926,514,1.6581
16.4969,489,1.5774
16.5012,410,1.3226
16.5055,363,1.1710
16.5098,377,1.2161
16.5140,428,1.3806
16.5183,526,1.6968
16.5226,685,2.2097
16.5269,903,2.9129
16.5312,1005,3.2419
16.5355,1004,3.2387
16.5400,1004,3.2387
16.5443,1002,3.2323
16.5486,996,3.2129
16.5528,833,2.6871
16.5571,606,1.9548
16.5615,453,1.4613
16.5657,404,1.3032
16.5700,431,1.3903
16.5743,463,1.4935
16.5786,446,1.4387
16.5829,410,1.3226
16.5873,414,1.3355
16.5916,452,1.4581
16.5959,461,1.4871
16.6003,428,1.3806
16.6046,409,1.3194
16.6089,439,1.4161
16.6133,478,1.5419
16.6176,467,1.5065
16.6219,429,1.3839
16.6262,424,1.3677
16.6306,464,1.4968
16.6349,489,1.5774
16.6392,467,1.5065
16.6436,438,1.4129
16.6479,451,1.4548
16.6522,487,1.5710
16.6567,488,1.5742
16.6611,456,1.4710
16.6655,448,1.4452
16.6698,484,1.5613
16.6742,509,1.6419
16.6785,488,1.5742
16.6828,455,1.4677
16.6872,467,1.5065
16.6914,511,1.6484
16.6957,525,1.6935
16.7000,495,1.5968
16.7043,475,1.5323
16.7086,501,1.6161
16.7129,540,1.7419
16.7172,541,1.7452
16.7215,508,1.6387
16.7258,507,1.6355
16.7301,549,1.7710
16.7344,577,1.8613
16.7387,555,1.7903
16.7430,522,1.6839
16.7473,537,1.7323
16.7516,583,1.8806
16.7559,600,1.9355
16.7601,568,1.8323
16.7644,548,1.7677
16.7687,575,1.8548
16.7730,610,1.9677
16.7773,597,1.9258
16.7816,551,1.7774
16.7859,535,1.7258
16.7903,561,1.8097
16.7946,570,1.8387
16.7989,534,1.7226
16.8032,491,1.5839
16.8076,495,1.5968
16.8119,523,1.6871
16.8162,517,1.6677
16.8206,474,1.5290
16.8249,450,1.4516
16.8292,473,1.5258
16.8336,500,1.6129
16.8380,485,1.5645
16.8423,447,1.4419
16.8467,446,1.4387
16.8510,483,1.5581
16.8553,494,1.5935
16.8596,462,1.4903
16.8640,437,1.4097
16.8683,462,1.4903
16.8726,503,1.6226
16.8770,499,1.6097
16.8814,458,1.4774
16.8857,447,1.4419
16.8901,480,1.5484
16.8944,503,1.6226
16.8986,480,1.5484
16.9029,448,1.4452
16.9072,460,1.4839
16.9115,502,1.6194
16.9158,510,1.6452
16.9201,473,1.5258
16.9244,452,1.4581
16.9287,482,1.5548
16.9330,517,1.6677
16.9373,511,1.6484
16.9416,472,1.5226
16.9459,466,1.5032
16.9502,500,1.6129
16.9545,522,1.6839
16.9588,498,1.6065
16.9631,470,1.5161
16.9673,483,1.5581
16.9717,519,1.6742
16.9759,519,1.6742
16.9802,483,1.5581
16.9845,464,1.4968
16.9888,493,1.5903
16.9932,524,1.6903
16.9975,510,1.6452
17.0018,472,1.5226
17.0062,473,1.5258
17.0105,513,1.6548
17.0148,532,1.7161
17.0191,500,1.6129
17.0235,469,1.5129
17.0278,489,1.5774
17.0321,527,1.7000
17.0365,527,1.7000
17.0409,487,1.5710
17.0452,475,1.5323
17.0496,509,1.6419
17.0539,533,1.7194
17.0582,509,1.6419
17.0626,472,1.5226
17.0669,480,1.5484
17.0712,520,1.6774
17.0756,532,1.7161
17.0799,498,1.6065
17.0843,474,1.5290
17.0886,497,1.6032
17.0929,529,1.7065
17.0973,520,1.6774
17.1015,483,1.5581
17.1058,475,1.5323
17.1101,513,1.6548
17.1144,534,1.7226
17.1187,508,1.6387
17.1230,476,1.5355
17.1273,492,1.5871
17.1316,530,1.7097
17.1359,535,1.7258
17.1403,498,1.6065
17.1446,481,1.5516
17.1489,511,1.6484
17.1532,542,1.7484
17.1575,527,1.7000
17.1618,492,1.5871
17.1661,493,1.5903
17.1704,536,1.7290
17.1747,553,1.7839
17.1790,522,1.6839
17.1833,494,1.5935
17.1876,521,1.6806
17.1919,578,1.8645
17.1962,592,1.9097
17.2006,553,1.7839
17.2049,530,1.7097
17.2092,554,1.7871
17.2136,572,1.8452
17.2179,549,1.7710
17.2222,511,1.6484
17.2265,512,1.6516
17.2309,543,1.7516
17.2352,548,1.7677
17.2396,511,1.6484
17.2439,483,1.5581
17.2483,505,1.6290
17.2526,538,1.7355
17.2571,529,1.7065
17.2615,494,1.5935
17.2659,493,1.5903
17.2702,530,1.7097
17.2745,546,1.7613
17.2789,513,1.6548
17.2832,477,1.5387
17.2875,489,1.5774
17.2918,523,1.6871
17.2961,514,1.6581
17.3004,448,1.4452
17.3047,389,1.2548
17.3090,387,1.2484
17.3133,398,1.2839
17.3176,403,1.3000
17.3219,488,1.5742
17.3262,699,2.2548
17.3305,980,3.1613
17.3347,1004,3.2387
17.3390,1004,3.2387
17.3434,1004,3.2387
17.3477,1003,3.2355
17.3520,1000,3.2258
17.3563,862,2.7806
17.3606,599,1.9323
17.3649,462,1.4903
17.3692,447,1.4419
17.3734,462,1.4903
17.3777,446,1.4387
17.3820,411,1.3258
17.3864,413,1.3323
17.3907,451,1.4548
17.3951,461,1.4871
17.3994,429,1.3839
17.4038,406,1.3097
17.4081,433,1.3968
17.4124,471,1.5194
17.4167,464,1.4968
17.4211,428,1.3806
17.4254,424,1.3677
17.4297,462,1.4903
17.4341,487,1.5710
17.4384,464,1.4968
17.4427,433,1.3968
17.4471,447,1.4419
17.4514,486,1.5677
17.4557,492,1.5871
17.4601,457,1.4742
17.4644,442,1.4258
17.4687,477,1.5387
17.4731,510,1.6452
17.4774,495,1.5968
17.4817,458,1.4774
17.4860,463,1.4935
17.4904,507,1.6355
17.4947,524,1.6903
17.4990,495,1.5968
17.5033,469,1.5129
17.5076,492,1.5871
17.5119,533,1.7194
17.5161,539,1.7387
17.5204,506,1.6323
17.5247,500,1.6129
17.5290,539,1.7387
17.5333,573,1.8484
17.5376,562,1.8129
17.5419,531,1.7129
17.5462,540,1.7419
17.5506,585,1.8871
17.5550,603,1.9452
17.5594,571,1.8419
17.5638,551,1.7774
17.5681,579,1.8677
17.5724,617,1.9903
17.5767,610,1.9677
17.5810,568,1.8323
17.5853,555,1.7903
17.5896,580,1.8710
17.5939,586,1.8903
17.5984,543,1.7516
17.6027,501,1.6161
17.6070,507,1.6355
17.6114,538,1.7355
17.6157,533,1.7194
17.6200,485,1.5645
17.6244,461,1.4871
17.6287,486,1.5677
17.6330,507,1.6355
17.6374,485,1.5645
17.6417,448,1.4452
17.6460,452,1.4581
17.6504,490,1.5806
17.6547,502,1.6194
17.6591,467,1.5065
17.6634,440,1.4194
17.6677,462,1.4903
17.6721,496,1.6000
17.6764,492,1.5871
17.6808,453,1.4613
17.6851,447,1.4419
17.6894,483,1.5581
17.6937,507,1.6355
17.6980,481,1.5516
17.7023,449,1.4484
17.7066,461,1.4871
17.7109,500,1.6129
17.7152,510,1.6452
17.7195,476,1.5355
17.7238,457,1.4742
17.7281,483,1.5581
17.7324,513,1.6548
17.7367,502,1.6194
17.7411,465,1.5000
17.7454,462,1.4903
17.7497,497,1.6032
17.7540,517,1.6677
17.7583,490,1.5806
17.7626,461,1.4871
17.7669,477,1.5387
17.7712,518,1.6710
17.7755,524,1.6903
17.7798,488,1.5742
17.7840,471,1.5194
17.7883,499,1.6097
17.7926,527,1.7000
17.7970,510,1.6452
17.8013,473,1.5258
17.8056,474,1.5290
17.8100,512,1.6516
17.8143,531,1.7129
17.8186,502,1.6194
17.8230,471,1.5194
17.8273,489,1.5774
17.8316,525,1.6935
17.8359,523,1.6871
17.8403,487,1.5710
17.8446,478,1.5419
17.8489,512,1.6516
17.8533,533,1.7194
17.8576,507,1.6355
17.8619,472,1.5226
17.8662,479,1.5452
17.8706,519,1.6742
17.8749,532,1.7161
17.8792,500,1.6129
17.8836,477,1.5387
17.8879,501,1.6161
17.8922,534,1.7226
17.8965,521,1.6806
17.9009,483,1.5581
17.9052,479,1.5452
17.9095,518,1.6710
17.9137,543,1.7516
17.9180,516,1.6645
17.9223,481,1.5516
17.9267,490,1.5806
17.9309,528,1.7032
17.9352,534,1.7226
17.9395,500,1.6129
17.9438,483,1.5581
17.9481,514,1.6581
17.9524,544,1.7548
17.9567,527,1.7000
17.9610,485,1.5645
17.9653,483,1.5581
17.9696,522,1.6839
17.9739,545,1.7581
17.9782,518,1.6710
17.9825,493,1.5903
17.9868,511,1.6484
17.9911,552,1.7806
17.9954,562,1.8129
17.9998,541,1.7452
18.0041,544,1.7548
18.0085,572,1.8452
18.0128,587,1.8935
18.0171,560,1.8065
18.0215,514,1.6581
18.0258,517,1.6677
18.0301,556,1.7935
18.0344,560,1.8065
18.0388,517,1.6677
18.0431,484,1.5613
18.0475,505,1.6290
18.0518,539,1.7387
18.0561,530,1.7097
18.0605,492,1.5871
18.0648,484,1.5613
18.0691,522,1.6839
18.0734,547,1.7645
18.0778,519,1.6742
18.0821,486,1.5677
18.0864,498,1.6065
18.0908,537,1.7323
18.0951,539,1.7387
18.0994,494,1.5935
18.1037,467,1.5065
18.1080,478,1.5419
18.1123,472,1.5226
18.1166,425,1.3710
18.1210,371,1.1968
18.1252,376,1.2129
18.1295,486,1.5677
18.1338,666,2.1484
18.1381,831,2.6806
18.1424,999,3.2226
18.1467,1002,3.2323
18.1511,1002,3.2323
18.1555,1003,3.2355
18.1598,999,3.2226
18.1642,844,2.7226
18.1685,646,2.0839
18.1733,527,1.7000
18.1776,459,1.4806
18.1819,416,1.3419
18.1862,429,1.3839
18.1905,472,1.5226
18.1948,480,1.5484
18.1991,444,1.4323
18.2034,422,1.3613
18.2077,447,1.4419
18.2120,478,1.5419
18.2163,465,1.5000
18.2206,429,1.3839
18.2249,426,1.3742
18.2292,467,1.5065
18.2335,494,1.5935
18.2378,470,1.5161
18.2421,436,1.4065
18.2464,452,1.4581
18.2507,496,1.6000
18.2550,505,1.6290
18.2593,469,1.5129
18.2636,451,1.4548
18.2679,480,1.5484
18.2722,512,1.6516
18.2765,501,1.6161
18.2808,467,1.5065
18.2851,473,1.5258
18.2894,518,1.6710
18.2937,540,1.7419
18.2980,509,1.6419
18.3024,479,1.5452
18.3067,501,1.6161
18.3111,543,1.7516
18.3154,542,1.7484
18.3198,507,1.6355
18.3241,502,1.6194
18.3284,545,1.7581
18.3328,577,1.8613
18.3371,560,1.8065
18.3416,528,1.7032
18.3459,544,1.7548
18.3503,592,1.9097
18.3546,607,1.9581
18.3589,576,1.8581
18.3633,555,1.7903
18.3676,589,1.9000
18.3719,629,2.0290
18.3763,623,2.0097
18.3806,584,1.8839
18.3849,577,1.8613
18.3893,606,1.9548
18.3936,613,1.9774
18.3979,575,1.8548
18.4022,534,1.7226
18.4065,539,1.7387
18.4109,564,1.8194
18.4151,553,1.7839
18.4194,505,1.6290
18.4237,478,1.5419
18.4280,499,1.6097
18.4323,518,1.6710
18.4366,493,1.5903
18.4409,453,1.4613
18.4452,452,1.4581
18.4495,486,1.5677
18.4539,497,1.6032
18.4583,465,1.5000
18.4627,440,1.4194
18.4671,464,1.4968
18.4714,500,1.6129
18.4757,493,1.5903
18.4800,453,1.4613
18.4843,445,1.4355
18.4886,480,1.5484
18.4929,505,1.6290
18.4972,482,1.5548
18.5015,447,1.4419
18.5058,458,1.4774
18.5101,500,1.6129
18.5145,507,1.6355
18.5188,472,1.5226
18.5231,454,1.4645
18.5275,479,1.5452
18.5318,511,1.6484
18.5361,499,1.6097
18.5404,462,1.4903
18.5448,460,1.4839
18.5491,501,1.6161
18.5534,521,1.6806
18.5578,490,1.5806
18.5621,460,1.4839
18.5664,478,1.5419
18.5708,516,1.6645
18.5752,516,1.6645
18.5795,479,1.5452
18.5838,468,1.5097
18.5881,503,1.6226
18.5925,529,1.7065
18.5969,505,1.6290
18.6012,470,1.5161
18.6055,479,1.5452
18.6098,517,1.6677
18.6141,526,1.6968
18.6184,491,1.5839
18.6227,468,1.5097
18.6270,492,1.5871
18.6313,523,1.6871
18.6356,513,1.6548
18.6399,473,1.5258
18.6442,465,1.5000
18.6485,500,1.6129
18.6528,525,1.6935
18.6571,503,1.6226
18.6614,470,1.5161
18.6657,480,1.5484
18.6699,520,1.6774
18.6742,528,1.7032
18.6785,494,1.5935
18.6828,475,1.5323
18.6871,502,1.6194
18.6914,537,1.7323
18.6957,527,1.7000
18.7000,484,1.5613
18.7043,477,1.5387
18.7087,515,1.6613
18.7130,538,1.7355
18.7174,511,1.6484
18.7217,473,1.5258
18.7260,485,1.5645
18.7303,523,1.6871
18.7347,527,1.7000
18.7390,492,1.5871
18.7433,478,1.5419
18.7477,514,1.6581
18.7520,547,1.7645
18.7563,529,1.7065
18.7607,496,1.6000
18.7650,507,1.6355
18.7693,562,1.8129
18.7736,595,1.9194
18.7780,566,1.8258
18.7823,532,1.7161
18.7867,542,1.7484
18.7910,568,1.8323
18.7953,557,1.7968
18.7997,517,1.6677
18.8040,505,1.6290
18.8083,533,1.7194
18.8126,549,1.7710
18.8169,518,1.6710
18.8212,478,1.5419
18.8255,483,1.5581
18.8298,519,1.6742
18.8340,531,1.7129
18.8383,500,1.6129
18.8426,478,1.5419
18.8469,498,1.6065
18.8512,528,1.7032
18.8555,518,1.6710
18.8598,477,1.5387
18.8641,469,1.5129
18.8684,505,1.6290
18.8727,524,1.6903
18.8770,480,1.5484
18.8813,403,1.3000
18.8856,376,1.2129
18.8899,393,1.2677
18.8941,411,1.3258
18.8984,469,1.5129
18.9027,634,2.0452
18.9071,881,2.8419
18.9114,1003,3.2355
18.9157,1003,3.2355
18.9201,1005,3.2419
18.9244,1003,3.2355
18.9288,1001,3.2290
18.9331,878,2.8323
18.9374,614,1.9806
18.9419,450,1.4516
18.9462,427,1.3774
18.9506,458,1.4774
18.9549,458,1.4774
18.9592,420,1.3548
18.9636,405,1.3065
18.9679,438,1.4129
18.9722,466,1.5032
18.9766,446,1.4387
18.9809,413,1.3323
18.9853,423,1.3645
18.9896,464,1.4968
18.9939,473,1.5258
18.9982,439,1.4161
19.0026,417,1.3452
19.0069,445,1.4355
19.0112,480,1.5484
19.0155,473,1.5258
19.0198,435,1.4032
19.0241,429,1.3839
19.0284,467,1.5065
19.0327,492,1.5871
19.0370,470,1.5161
19.0413,442,1.4258
19.0456,456,1.4710
19.0499,496,1.6000
19.0542,503,1.6226
19.0586,466,1.5032
19.0630,450,1.4516
19.0674,485,1.5645
19.0717,522,1.6839
19.0760,510,1.6452
19.0803,475,1.5323
19.0846,480,1.5484
19.0890,522,1.6839
19.0933,541,1.7452
19.0976,515,1.6613
19.1019,494,1.5935
19.1063,522,1.6839
19.1106,566,1.8258
19.1149,568,1.8323
19.1193,534,1.7226
19.1236,533,1.7194
19.1279,575,1.8548
19.1323,606,1.9548
19.1366,584,1.8839
19.1410,551,1.7774
19.1453,561,1.8097
19.1496,605,1.9516
19.1540,612,1.9742
19.1583,570,1.8387
19.1626,541,1.7452
19.1670,557,1.7968
19.1713,577,1.8613
19.1756,551,1.7774
19.1800,501,1.6161
19.1843,489,1.5774
19.1886,517,1.6677
19.1930,527,1.7000
19.1973,490,1.5806
19.2016,454,1.4645
19.2059,466,1.5032
19.2103,499,1.6097
19.2146,493,1.5903
19.2189,453,1.4613
19.2231,439,1.4161
19.2274,471,1.5194
19.2317,498,1.6065
19.2360,480,1.5484
19.2403,443,1.4290
19.2446,445,1.4355
19.2489,487,1.5710
19.2532,503,1.6226
19.2575,470,1.5161
19.2618,439,1.4161
19.2661,455,1.4677
19.2704,491,1.5839
19.2747,490,1.5806
19.2790,452,1.4581
19.2832,439,1.4161
19.2875,474,1.5290
19.2918,504,1.6258
19.2961,488,1.5742
19.3004,453,1.4613
19.3047,460,1.4839
19.3090,501,1.6161
19.3134,515,1.6613
19.3177,480,1.5484
19.3220,454,1.4645
19.3263,479,1.5452
19.3307,517,1.6677
19.3350,509,1.6419
19.3394,467,1.5065
19.3437,458,1.4774
19.3480,497,1.6032
19.3524,524,1.6903
19.3568,498,1.6065
19.3613,467,1.5065
19.3657,479,1.5452
19.3700,515,1.6613
19.3744,516,1.6645
19.3787,478,1.5419
19.3831,467,1.5065
19.3874,500,1.6129
19.3917,527,1.7000
19.3961,508,1.6387
19.4004,469,1.5129
19.4048,472,1.5226
19.4092,514,1.6581
19.4135,526,1.6968
19.4178,492,1.5871
19.4221,466,1.5032
19.4264,489,1.5774
19.4306,522,1.6839
19.4349,515,1.6613
19.4392,477,1.5387
19.4435,472,1.5226
19.4478,508,1.6387
19.4521,533,1.7194
19.4564,510,1.6452
19.4608,476,1.5355
19.4650,484,1.5613
19.4693,525,1.6935
19.4736,534,1.7226
19.4779,499,1.6097
19.4822,474,1.5290
19.4865,496,1.6000
19.4908,528,1.7032
19.4951,516,1.6645
19.4994,481,1.5516
19.5037,478,1.5419
19.5080,516,1.6645
19.5124,537,1.7323
19.5168,509,1.6419
19.5212,477,1.5387
19.5255,491,1.5839
19.5297,530,1.7097
19.5341,536,1.7290
19.5384,498,1.6065
19.5427,479,1.5452
19.5470,509,1.6419
19.5513,539,1.7387
19.5556,524,1.6903
19.5599,487,1.5710
19.5642,489,1.5774
19.5685,532,1.7161
19.5727,552,1.7806
19.5771,521,1.6806
19.5814,494,1.5935
19.5857,521,1.6806
19.5900,576,1.8581
19.5943,593,1.9129
19.5986,549,1.7710
19.6029,525,1.6935
19.6072,548,1.7677
19.6115,568,1.8323
19.6158,547,1.7645
19.6201,509,1.6419
19.6244,505,1.6290
19.6288,534,1.7226
19.6330,540,1.7419
19.6373,505,1.6290
19.6416,477,1.5387
19.6460,497,1.6032
19.6503,532,1.7161
19.6545,529,1.7065
19.6590,488,1.5742
19.6633,480,1.5484
19.6676,516,1.6645
19.6719,540,1.7419
19.6762,517,1.6677
19.6805,485,1.5645
19.6848,497,1.6032
19.6891,533,1.7194
19.6934,529,1.7065
19.6977,471,1.5194
19.7021,409,1.3194
19.7064,397,1.2806
19.7107,404,1.3032
19.7150,388,1.2516
19.7193,424,1.3677
19.7236,599,1.9323
19.7279,871,2.8097
19.7322,1004,3.2387
19.7365,1005,3.2419
19.7409,1005,3.2419
19.7452,1003,3.2355
19.7495,1001,3.2290
19.7538,953,3.0742
19.7581,686,2.2129
19.7624,501,1.6161
19.7667,460,1.4839
19.7710,465,1.5000
19.7753,446,1.4387
19.7796,408,1.3161
19.7839,409,1.3194
19.7882,449,1.4484
19.7925,466,1.5032
19.7968,438,1.4129
19.8011,410,1.3226
19.8055,430,1.3871
19.8098,470,1.5161
19.8141,468,1.5097
19.8184,425,1.3710
19.8227,410,1.3226
19.8270,446,1.4387
19.8313,478,1.5419
19.8356,462,1.4903
19.8399,427,1.3774
19.8442,436,1.4065
19.8485,481,1.5516
19.8528,496,1.6000
19.8571,462,1.4903
19.8614,437,1.4097
19.8658,463,1.4935
19.8701,506,1.6323
19.8744,503,1.6226
19.8787,465,1.5000
19.8830,455,1.4677
19.8873,493,1.5903
19.8916,521,1.6806
19.8959,502,1.6194
19.9002,472,1.5226
19.9045,483,1.5581
19.9088,526,1.6968
19.9131,538,1.7355
19.9174,507,1.6355
19.9217,491,1.5839
19.9260,523,1.6871
19.9304,562,1.8129
19.9347,559,1.8032
19.9390,527,1.7000
19.9437,531,1.7129
19.9481,577,1.8613
19.9524,600,1.9355
19.9568,570,1.8387
19.9612,546,1.7613
19.9657,572,1.8452
19.9700,614,1.9806
19.9743,611,1.9710
19.9786,572,1.8452
19.9830,558,1.8000
19.9873,582,1.8774
19.9916,592,1.9097
19.9959,557,1.7968
20.0002,510,1.6452
20.0045,511,1.6484
20.0088,543,1.7516
20.0136,537,1.7323
20.0180,486,1.5677
20.0228,458,1.4774
20.0272,487,1.5710
20.0316,509,1.6419
20.0361,481,1.5516
20.0405,447,1.4419
20.0448,460,1.4839
20.0491,498,1.6065
20.0534,499,1.6097
20.0577,457,1.4742
20.0619,437,1.4097
20.0662,465,1.5000
20.0705,499,1.6097
20.0748,489,1.5774
20.0790,452,1.4581
20.0833,449,1.4484
20.0876,488,1.5742
20.0918,510,1.6452
20.0961,483,1.5581
20.1004,450,1.4516
20.1046,461,1.4871
20.1094,505,1.6290
20.1136,509,1.6419
20.1180,474,1.5290
20.1222,461,1.4871
20.1265,493,1.5903
20.1308,522,1.6839
20.1351,503,1.6226
20.1394,460,1.4839
20.1436,461,1.4871
20.1479,504,1.6258
20.1522,524,1.6903
20.1565,492,1.5871
20.1608,462,1.4903
20.1651,479,1.5452
20.1694,518,1.6710
20.1736,518,1.6710
20.1780,482,1.5548
20.1822,467,1.5065
20.1865,496,1.6000
20.1908,527,1.7000
20.1957,505,1.6290
20.2000,471,1.5194
20.2043,479,1.5452
20.2085,520,1.6774
20.2129,530,1.7097
20.2172,495,1.5968
20.2214,470,1.5161
20.2257,495,1.5968
20.2300,530,1.7097
20.2343,522,1.6839
20.2386,483,1.5581
20.2428,476,1.5355
20.2471,511,1.6484
20.2515,534,1.7226
20.2560,508,1.6387
20.2604,476,1.5355
20.2648,492,1.5871
20.2691,530,1.7097
20.2739,527,1.7000
20.2783,489,1.5774
20.2825,476,1.5355
20.2868,511,1.6484
20.2911,538,1.7355
20.2954,519,1.6742
20.2996,483,1.5581
20.3039,487,1.5710
20.3082,525,1.6935
20.3124,538,1.7355
20.3167,505,1.6290
20.3210,478,1.5419
20.3253,500,1.6129
20.3296,538,1.7355
20.3339,533,1.7194
20.3381,492,1.5871
20.3424,480,1.5484
20.3467,516,1.6645
20.3510,545,1.7581
20.3553,526,1.6968
20.3601,485,1.5645
20.3644,497,1.6032
20.3687,536,1.7290
20.3730,546,1.7613
20.3773,513,1.6548
20.3816,494,1.5935
20.3858,516,1.6645
20.3901,546,1.7613
20.3944,542,1.7484
20.3987,520,1.6774
20.4030,534,1.7226
20.4072,582,1.8774
20.4115,598,1.9290
20.4161,556,1.7935
20.4204,518,1.6710
20.4247,528,1.7032
20.4290,564,1.8194
20.4332,562,1.8129
20.4376,516,1.6645
20.4419,492,1.5871
20.4462,519,1.6742
20.4504,550,1.7742
20.4547,533,1.7194
20.4590,494,1.5935
20.4633,490,1.5806
20.4676,525,1.6935
20.4719,539,1.7387
20.4761,509,1.6419
20.4804,481,1.5516
20.4847,500,1.6129
20.4890,536,1.7290
20.4933,534,1.7226
20.4975,497,1.6032
20.5018,478,1.5419
20.5061,498,1.6065
20.5104,507,1.6355
20.5147,452,1.4581
20.5191,377,1.2161
20.5235,361,1.1645
20.5278,411,1.3258
20.5320,517,1.6677
20.5363,663,2.1387
20.5406,838,2.7032
20.5449,1002,3.2323
20.5492,1003,3.2355
20.5534,1004,3.2387
20.5577,1003,3.2355
20.5619,998,3.2194
20.5662,881,2.8419
20.5705,674,2.1742
20.5748,522,1.6839
20.5791,437,1.4097
20.5834,423,1.3645
20.5877,460,1.4839
20.5919,478,1.5419
20.5962,447,1.4419
20.6009,414,1.3355
20.6052,434,1.4000
20.6095,470,1.5161
20.6138,467,1.5065
20.6180,429,1.3839
20.6223,422,1.3613
20.6266,458,1.4774
20.6309,488,1.5742
20.6352,469,1.5129
20.6394,434,1.4000
20.6437,440,1.4194
20.6480,479,1.5452
20.6523,495,1.5968
20.6566,467,1.5065
20.6609,449,1.4484
20.6652,475,1.5323
20.6695,508,1.6387
20.6737,500,1.6129
20.6780,463,1.4935
20.6825,456,1.4710
20.6868,497,1.6032
20.6911,527,1.7000
20.6954,509,1.6419
20.6996,475,1.5323
20.7039,483,1.5581
20.7082,526,1.6968
20.7125,539,1.7387
20.7167,509,1.6419
20.7210,493,1.5903
20.7253,524,1.6903
20.7296,565,1.8226
20.7339,560,1.8065
20.7381,525,1.6935
20.7424,525,1.6935
20.7467,569,1.8355
20.7510,601,1.9387
20.7553,587,1.8935
20.7596,556,1.7935
20.7641,572,1.8452
20.7684,613,1.9774
20.7727,623,2.0097
20.7770,592,1.9097
20.7812,576,1.8581
20.7855,599,1.9323
20.7898,627,2.0226
20.7941,609,1.9645
20.7984,562,1.8129
20.8026,545,1.7581
20.8069,569,1.8355
20.8112,579,1.8677
20.8155,542,1.7484
20.8198,496,1.6000
20.8240,496,1.6000
20.8283,525,1.6935
20.8326,522,1.6839
20.8369,479,1.5452
20.8412,453,1.4613
20.8457,473,1.5258
20.8500,497,1.6032
20.8544,476,1.5355
20.8588,438,1.4129
20.8632,441,1.4226
20.8675,480,1.5484
20.8718,496,1.6000
20.8761,465,1.5000
20.8804,438,1.4129
20.8846,457,1.4742
20.8889,494,1.5935
20.8932,493,1.5903
20.8975,454,1.4645
20.9017,442,1.4258
20.9060,474,1.5290
20.9103,504,1.6258
20.9146,485,1.5645
20.9189,449,1.4484
20.9235,457,1.4742
20.9278,500,1.6129
20.9321,512,1.6516
20.9364,476,1.5355
20.9406,449,1.4484
20.9450,474,1.5290
20.9492,514,1.6581
20.9535,505,1.6290
20.9578,464,1.4968
20.9621,456,1.4710
20.9664,492,1.5871
20.9706,519,1.6742
20.9749,499,1.6097
20.9792,465,1.5000
20.9835,473,1.5258
20.9877,509,1.6419
20.9920,521,1.6806
20.9963,490,1.5806
21.0005,465,1.5000
21.0048,487,1.5710
21.0092,523,1.6871
21.0135,516,1.6645
21.0178,478,1.5419
21.0221,470,1.5161
21.0263,505,1.6290
21.0306,527,1.7000
21.0349,504,1.6258
21.0392,470,1.5161
21.0435,478,1.5419
21.0477,518,1.6710
21.0520,531,1.7129
21.0563,497,1.6032
21.0606,470,1.5161
21.0648,489,1.5774
21.0691,525,1.6935
21.0734,520,1.6774
21.0777,484,1.5613
21.0819,473,1.5258
21.0862,508,1.6387
21.0906,533,1.7194
21.0949,511,1.6484
21.0992,477,1.5387
21.1034,484,1.5613
21.1077,524,1.6903
21.1120,534,1.7226
21.1163,501,1.6161
21.1205,479,1.5452
21.1249,505,1.6290
21.1292,541,1.7452
21.1335,532,1.7161
21.1378,489,1.5774
21.1421,478,1.5419
21.1464,515,1.6613
21.1508,542,1.7484
21.1553,519,1.6742
21.1606,495,1.5968
21.1650,519,1.6742
21.1693,553,1.7839
21.1736,548,1.7677
21.1780,518,1.6710
21.1823,532,1.7161
21.1866,583,1.8806
21.1910,600,1.9355
21.1953,562,1.8129
21.1996,517,1.6677
21.2039,522,1.6839
21.2082,562,1.8129
21.2125,564,1.8194
21.2168,521,1.6806
21.2213,492,1.5871
21.2256,515,1.6613
21.2299,541,1.7452
21.2341,525,1.6935
21.2384,486,1.5677
21.2427,484,1.5613
21.2470,518,1.6710
21.2512,534,1.7226
21.2555,504,1.6258
21.2598,473,1.5258
21.2641,491,1.5839
21.2684,531,1.7129
21.2726,532,1.7161
21.2769,495,1.5968
21.2812,477,1.5387
21.2854,498,1.6065
21.2897,501,1.6161
21.2940,440,1.4194
21.2983,368,1.1871
21.3026,354,1.1419
21.3068,418,1.3484
21.3111,553,1.7839
21.3154,713,2.3000
21.3197,892,2.8774
21.3240,1001,3.2290
21.3283,1006,3.2452
21.3326,1005,3.2419
21.3369,1003,3.2355
21.3413,989,3.1903
21.3456,797,2.5710
21.3499,605,1.9516
21.3542,480,1.5484
21.3585,412,1.3290
21.3629,413,1.3323
21.3672,460,1.4839
21.3715,476,1.5355
21.3758,441,1.4226
21.3801,412,1.3290
21.3844,431,1.3903
21.3888,465,1.5000
21.3931,460,1.4839
21.3974,424,1.3677
21.4017,417,1.3452
21.4060,453,1.4613
21.4103,479,1.5452
21.4146,458,1.4774
21.4189,426,1.3742
21.4232,436,1.4065
21.4275,479,1.5452
21.4318,493,1.5903
21.4361,463,1.4935
21.4404,440,1.4194
21.4446,464,1.4968
21.4489,502,1.6194
21.4532,498,1.6065
21.4575,461,1.4871
21.4617,453,1.4613
21.4660,489,1.5774
21.4703,515,1.6613
21.4745,496,1.6000
21.4788,464,1.4968
21.4831,476,1.5355
21.4874,516,1.6645
21.4917,527,1.7000
21.4960,495,1.5968
21.5002,476,1.5355
21.5045,505,1.6290
21.5088,548,1.7677
21.5131,547,1.7645
21.5174,514,1.6581
21.5216,509,1.6419
21.5259,550,1.7742
21.5302,580,1.8710
21.5346,563,1.8161
21.5389,534,1.7226
21.5432,546,1.7613
21.5475,589,1.9000
21.5518,607,1.9581
21.5561,576,1.8581
21.5604,553,1.7839
21.5647,577,1.8613
21.5690,610,1.9677
21.5733,593,1.9129
21.5777,545,1.7581
21.5820,529,1.7065
21.5863,553,1.7839
21.5906,560,1.8065
21.5949,522,1.6839
21.5992,481,1.5516
21.6035,486,1.5677
21.6078,517,1.6677
21.6121,515,1.6613
21.6164,473,1.5258
21.6207,451,1.4548
21.6250,479,1.5452
21.6293,508,1.6387
21.6336,491,1.5839
21.6379,453,1.4613
21.6421,451,1.4548
21.6465,486,1.5677
21.6508,503,1.6226
21.6550,475,1.5323
21.6593,443,1.4290
21.6635,456,1.4710
21.6678,495,1.5968
21.6721,500,1.6129
21.6764,461,1.4871
21.6807,443,1.4290
21.6849,472,1.5226
21.6892,505,1.6290
21.6935,494,1.5935
21.6978,458,1.4774
21.7020,458,1.4774
21.7063,498,1.6065
21.7111,517,1.6677
21.7154,482,1.5548
21.7197,453,1.4613
21.7240,474,1.5290
21.7282,514,1.6581
21.7325,516,1.6645
21.7368,476,1.5355
21.7411,460,1.4839
21.7454,496,1.6000
21.7497,529,1.7065
21.7540,509,1.6419
21.7584,466,1.5032
21.7651,491,1.5839
21.7695,521,1.6806
21.7738,507,1.6355
21.7781,472,1.5226
21.7825,476,1.5355
21.7868,514,1.6581
21.7912,526,1.6968
21.7955,494,1.5935
21.7998,471,1.5194
21.8042,496,1.6000
21.8085,530,1.7097
21.8128,519,1.6742
21.8172,478,1.5419
21.8215,471,1.5194
21.8259,509,1.6419
21.8303,534,1.7226
21.8346,509,1.6419
21.8388,475,1.5323
21.8431,484,1.5613
21.8474,520,1.6774
21.8517,522,1.6839
21.8560,482,1.5548
21.8603,463,1.4935
21.8645,493,1.5903
21.8687,529,1.7065
21.8731,520,1.6774
21.8773,481,1.5516
21.8816,474,1.5290
21.8858,512,1.6516
21.8901,535,1.7258
21.8944,511,1.6484
21.8986,478,1.5419
21.9028,489,1.5774
21.9071,529,1.7065
21.9113,537,1.7323
21.9156,503,1.6226
21.9199,479,1.5452
21.9241,503,1.6226
21.9284,538,1.7355
21.9326,531,1.7129
21.9369,492,1.5871
21.9412,481,1.5516
21.9455,514,1.6581
21.9497,539,1.7387
21.9540,518,1.6710
21.9583,483,1.5581
21.9625,491,1.5839
21.9668,532,1.7161
21.9710,544,1.7548
21.9753,508,1.6387
21.9796,478,1.5419
21.9839,500,1.6129
21.9881,540,1.7419
21.9924,540,1.7419
21.9966,505,1.6290
22.0009,492,1.5871
22.0051,529,1.7065
22.0094,569,1.8355
22.0137,569,1.8355
22.0179,543,1.7516
22.0222,538,1.7355
22.0265,569,1.8355
22.0307,574,1.8516
22.0351,535,1.7258
22.0394,508,1.6387
22.0437,528,1.7032
22.0480,564,1.8194
22.0523,553,1.7839
22.0568,504,1.6258
22.0612,489,1.5774
22.0656,522,1.6839
22.0699,541,1.7452
22.0742,514,1.6581
22.0786,481,1.5516
22.0829,492,1.5871
22.0872,531,1.7129
22.0915,538,1.7355
22.0958,499,1.6097
22.1001,477,1.5387
22.1044,503,1.6226
22.1087,536,1.7290
22.1130,523,1.6871
22.1173,474,1.5290
22.1216,442,1.4258
22.1259,438,1.4129
22.1302,423,1.3645
22.1345,374,1.2065
22.1388,369,1.1903
22.1431,516,1.6645
22.1474,770,2.4839
22.1517,997,3.2161
22.1560,1004,3.2387
22.1603,1004,3.2387
22.1646,1004,3.2387
22.1689,1004,3.2387
22.1732,998,3.2194
22.1775,817,2.6355
22.1818,583,1.8806
22.1861,498,1.6065
22.1904,472,1.5226
22.1947,433,1.3968
22.1990,407,1.3129
22.2033,425,1.3710
22.2076,462,1.4903
22.2119,461,1.4871
22.2162,423,1.3645
22.2205,405,1.3065
22.2248,434,1.4000
22.2291,464,1.4968
22.2334,454,1.4645
22.2377,422,1.3613
22.2420,427,1.3774
22.2463,465,1.5000
22.2506,479,1.5452
22.2549,449,1.4484
22.2592,422,1.3613
22.2635,446,1.4387
22.2678,484,1.5613
22.2721,482,1.5548
22.2764,445,1.4355
22.2808,435,1.4032
22.2851,473,1.5258
22.2894,506,1.6323
22.2937,490,1.5806
22.2980,453,1.4613
22.3023,459,1.4806
22.3066,501,1.6161
22.3109,517,1.6677
22.3152,486,1.5677
22.3195,462,1.4903
22.3238,492,1.5871
22.3281,538,1.7355
22.3324,537,1.7323
22.3367,498,1.6065
22.3411,491,1.5839
22.3454,531,1.7129
22.3497,559,1.8032
22.3540,539,1.7387
22.3582,510,1.6452
22.3626,524,1.6903
22.3668,571,1.8419
22.3711,588,1.8968
22.3754,562,1.8129
22.3797,545,1.7581
22.3840,577,1.8613
22.3883,616,1.9871
22.3926,611,1.9710
22.3969,574,1.8516
22.4012,571,1.8419
22.4055,601,1.9387
22.4098,609,1.9645
22.4141,570,1.8387
22.4184,525,1.6935
22.4228,529,1.7065
22.4270,553,1.7839
22.4313,543,1.7516
22.4356,491,1.5839
22.4399,463,1.4935
22.4445,491,1.5839
22.4489,517,1.6677
22.4532,494,1.5935
22.4575,450,1.4516
22.4618,449,1.4484
22.4661,487,1.5710
22.4704,501,1.6161
22.4747,471,1.5194
22.4790,442,1.4258
22.4833,460,1.4839
22.4877,498,1.6065
22.4919,499,1.6097
22.4962,459,1.4806
22.5005,442,1.4258
22.5049,471,1.5194
22.5091,496,1.6000
22.5134,478,1.5419
22.5177,444,1.4323
22.5220,453,1.4613
22.5264,495,1.5968
22.5307,510,1.6452
22.5350,476,1.5355
22.5393,451,1.4548
22.5435,472,1.5226
22.5479,509,1.6419
22.5522,508,1.6387
22.5564,472,1.5226
22.5607,462,1.4903
22.5650,496,1.6000
22.5693,524,1.6903
22.5736,500,1.6129
22.5779,465,1.5000
22.5822,473,1.5258
22.5866,516,1.6645
22.5909,526,1.6968
22.5952,485,1.5645
22.5995,461,1.4871
22.6038,486,1.5677
22.6081,521,1.6806
22.6124,512,1.6516
22.6167,473,1.5258
22.6210,468,1.5097
22.6253,505,1.6290
22.6296,527,1.7000
22.6339,501,1.6161
22.6382,470,1.5161
22.6425,482,1.5548
22.6468,520,1.6774
22.6512,524,1.6903
22.6558,486,1.5677
22.6602,468,1.5097
22.6647,503,1.6226
22.6691,533,1.7194
22.6734,516,1.6645
22.6777,483,1.5581
22.6820,488,1.5742
22.6863,523,1.6871
22.6907,528,1.7032
22.6949,493,1.5903
22.6992,469,1.5129
22.7035,494,1.5935
22.7078,529,1.7065
22.7122,521,1.6806
22.7165,483,1.5581
22.7208,479,1.5452
22.7253,518,1.6710
22.7296,538,1.7355
22.7339,512,1.6516
22.7382,478,1.5419
22.7425,490,1.5806
22.7469,529,1.7065
22.7512,535,1.7258
22.7555,503,1.6226
22.7598,490,1.5806
22.7641,520,1.6774
22.7684,554,1.7871
22.7727,552,1.7806
22.7770,531,1.7129
22.7813,541,1.7452
22.7856,576,1.8581
22.7899,587,1.8935
22.7942,546,1.7613
22.7985,507,1.6355
22.8028,519,1.6742
22.8071,555,1.7903
22.8114,552,1.7806
22.8157,506,1.6323
22.8200,483,1.5581
22.8243,512,1.6516
22.8286,538,1.7355
22.8329,516,1.6645
22.8372,476,1.5355
22.8415,479,1.5452
22.8458,520,1.6774
22.8501,534,1.7226
22.8545,503,1.6226
22.8588,476,1.5355
22.8630,495,1.5968
22.8673,530,1.7097
22.8716,523,1.6871
22.8760,482,1.5548
22.8803,464,1.4968
22.8846,479,1.5452
22.8889,463,1.4935
22.8932,405,1.3065
22.8975,351,1.1323
22.9018,374,1.2065
22.9061,509,1.6419
22.9104,698,2.2516
22.9147,862,2.7806
22.9190,1000,3.2258
22.9233,1004,3.2387
22.9276,1005,3.2419
22.9320,1004,3.2387
22.9364,991,3.1968
22.9409,777,2.5065
22.9454,598,1.9290
22.9502,500,1.6129
22.9546,433,1.3968
22.9591,406,1.3097
22.9634,437,1.4097
22.9677,477,1.5387
22.9720,467,1.5065
22.9765,424,1.3677
22.9809,417,1.3452
22.9852,454,1.4645
22.9896,474,1.5290
22.9939,451,1.4548
22.9982,422,1.3613
23.0025,439,1.4161
23.0068,477,1.5387
23.0112,478,1.5419
23.0155,442,1.4258
23.0198,432,1.3935
23.0240,465,1.5000
23.0283,499,1.6097
23.0326,487,1.5710
23.0369,454,1.4645
23.0411,456,1.4710
23.0454,496,1.6000
23.0497,513,1.6548
23.0540,486,1.5677
23.0582,461,1.4871
23.0625,482,1.5548
23.0668,525,1.6935
23.0711,529,1.7065
23.0753,491,1.5839
23.0796,476,1.5355
23.0838,507,1.6355
23.0881,540,1.7419
23.0924,531,1.7129
23.0967,499,1.6097
23.1009,503,1.6226
23.1052,547,1.7645
23.1095,572,1.8452
23.1137,547,1.7645
23.1180,520,1.6774
23.1223,541,1.7452
23.1265,588,1.8968
23.1309,596,1.9226
23.1351,565,1.8226
23.1395,551,1.7774
23.1438,586,1.8903
23.1481,620,2.0000
23.1524,611,1.9710
23.1567,575,1.8548
23.1610,572,1.8452
23.1653,602,1.9419
23.1696,609,1.9645
23.1739,566,1.8258
23.1782,525,1.6935
23.1825,527,1.7000
23.1868,550,1.7742
23.1911,543,1.7516
23.1954,499,1.6097
23.1997,475,1.5323
23.2040,494,1.5935
23.2083,512,1.6516
23.2126,488,1.5742
23.2169,449,1.4484
23.2212,448,1.4452
23.2255,486,1.5677
23.2299,498,1.6065
23.2342,465,1.5000
23.2384,441,1.4226
23.2428,462,1.4903
23.2470,501,1.6161
23.2513,499,1.6097
23.2555,459,1.4806
23.2598,444,1.4323
23.2641,472,1.5226
23.2683,497,1.6032
23.2726,480,1.5484
23.2769,447,1.4419
23.2812,454,1.4645
23.2854,492,1.5871
23.2897,506,1.6323
23.2940,477,1.5387
23.2982,452,1.4581
23.3025,469,1.5129
23.3068,506,1.6323
23.3110,507,1.6355
23.3153,473,1.5258
23.3196,459,1.4806
23.3238,487,1.5710
23.3281,516,1.6645
23.3324,502,1.6194
23.3367,468,1.5097
23.3410,471,1.5194
23.3454,510,1.6452
23.3497,525,1.6935
23.3540,494,1.5935
23.3583,466,1.5032
23.3626,481,1.5516
23.3669,515,1.6613
23.3712,514,1.6581
23.3755,482,1.5548
23.3798,472,1.5226
23.3841,498,1.6065
23.3884,521,1.6806
23.3927,502,1.6194
23.3970,471,1.5194
23.4013,476,1.5355
23.4056,512,1.6516
23.4099,523,1.6871
23.4142,494,1.5935
23.4185,472,1.5226
23.4227,490,1.5806
23.4270,523,1.6871
23.4313,521,1.6806
23.4356,489,1.5774
23.4400,480,1.5484
23.4443,507,1.6355
23.4486,525,1.6935
23.4528,503,1.6226
23.4571,473,1.5258
23.4614,481,1.5516
23.4656,517,1.6677
23.4699,529,1.7065
23.4742,503,1.6226
23.4788,486,1.5677
23.4831,511,1.6484
23.4874,544,1.7548
23.4917,539,1.7387
23.4959,515,1.6613
23.5002,529,1.7065
23.5045,573,1.8484
23.5087,590,1.9032
23.5130,562,1.8129
23.5173,524,1.6903
23.5215,520,1.6774
23.5258,551,1.7774
23.5301,555,1.7903
23.5343,517,1.6677
23.5386,488,1.5742
23.5429,504,1.6258
23.5472,530,1.7097
23.5516,520,1.6774
23.5559,483,1.5581
23.5613,484,1.5613
23.5657,521,1.6806
23.5700,529,1.7065
23.5744,498,1.6065
23.5787,481,1.5516
23.5830,503,1.6226
23.5873,528,1.7032
23.5916,515,1.6613
23.5959,479,1.5452
23.6002,468,1.5097
23.6045,487,1.5710
23.6088,469,1.5129
23.6131,406,1.3097
23.6174,349,1.1258
23.6217,360,1.1613
23.6260,475,1.5323
23.6303,655,2.1129
23.6346,851,2.7452
23.6389,1002,3.2323
23.6433,1003,3.2355
23.6476,1006,3.2452
23.6518,1004,3.2387
23.6561,1001,3.2290
23.6604,925,2.9839
23.6646,686,2.2129
23.6689,529,1.7065
23.6732,440,1.4194
23.6774,398,1.2839
23.6817,414,1.3355
23.6860,454,1.4645
23.6903,459,1.4806
23.6945,425,1.3710
23.6988,404,1.3032
23.7031,428,1.3806
23.7073,460,1.4839
23.7116,452,1.4581
23.7159,420,1.3548
23.7201,420,1.3548
23.7244,457,1.4742
23.7287,478,1.5419
23.7330,455,1.4677
23.7372,428,1.3806
23.7415,440,1.4194
23.7459,477,1.5387
23.7501,484,1.5613
23.7544,456,1.4710
23.7588,442,1.4258
23.7630,466,1.5032
23.7674,494,1.5935
23.7716,485,1.5645
23.7759,453,1.4613
23.7802,454,1.4645
23.7845,491,1.5839
23.7889,514,1.6581
23.7932,493,1.5903
23.7975,469,1.5129
23.8017,484,1.5613
23.8061,521,1.6806
23.8104,530,1.7097
23.8147,503,1.6226
23.8190,492,1.5871
23.8232,522,1.6839
23.8275,553,1.7839
23.8318,546,1.7613
23.8361,520,1.6774
23.8404,527,1.7000
23.8447,570,1.8387
23.8491,594,1.9161
23.8534,574,1.8516
23.8578,552,1.7806
23.8622,571,1.8419
23.8666,606,1.9548
23.8710,603,1.9452
23.8753,571,1.8419
23.8797,569,1.8355
23.8840,605,1.9516
23.8882,618,1.9935
23.8925,581,1.8742
23.8969,535,1.7258
23.9012,529,1.7065
23.9055,554,1.7871
23.9098,552,1.7806
23.9141,508,1.6387
23.9184,477,1.5387
23.9227,492,1.5871
23.9270,519,1.6742
23.9313,509,1.6419
23.9356,468,1.5097
23.9398,455,1.4677
23.9441,482,1.5548
23.9484,501,1.6161
23.9527,481,1.5516
23.9570,452,1.4581
23.9612,455,1.4677
23.9655,487,1.5710
23.9698,492,1.5871
23.9741,458,1.4774
23.9783,437,1.4097
23.9826,461,1.4871
23.9869,495,1.5968
23.9912,490,1.5806
23.9954,456,1.4710
23.9997,451,1.4548
24.0040,485,1.5645
24.0083,508,1.6387
24.0125,487,1.5710
24.0169,456,1.4710
24.0211,465,1.5000
24.0254,506,1.6323
24.0296,514,1.6581
24.0339,480,1.5484
24.0382,460,1.4839
24.0425,484,1.5613
24.0469,517,1.6677
24.0512,507,1.6355
24.0556,467,1.5065
24.0599,463,1.4935
24.0643,500,1.6129
24.0686,520,1.6774
24.0729,493,1.5903
24.0773,462,1.4903
24.0816,477,1.5387
24.0860,517,1.6677
24.0903,520,1.6774
24.0948,482,1.5548
24.0992,471,1.5194
24.1035,505,1.6290
24.1078,531,1.7129
24.1122,511,1.6484
24.1165,473,1.5258
24.1209,480,1.5484
24.1253,522,1.6839
24.1296,530,1.7097
24.1339,497,1.6032
24.1382,476,1.5355
24.1428,506,1.6323
24.1472,536,1.7290
24.1514,523,1.6871
24.1557,484,1.5613
24.1600,480,1.5484
24.1642,519,1.6742
24.1685,543,1.7516
24.1728,527,1.7000
24.1771,516,1.6645
24.1813,545,1.7581
24.1856,583,1.8806
24.1899,580,1.8710
24.1942,536,1.7290
24.1984,507,1.6355
24.2027,529,1.7065
24.2070,559,1.8032
24.2112,543,1.7516
24.2155,500,1.6129
24.2197,491,1.5839
24.2240,522,1.6839
24.2283,533,1.7194
24.2326,504,1.6258
24.2368,470,1.5161
24.2411,480,1.5484
24.2454,515,1.6613
24.2498,518,1.6710
24.2541,483,1.5581
24.2584,465,1.5000
24.2627,491,1.5839
24.2670,522,1.6839
24.2713,511,1.6484
24.2756,475,1.5323
24.2799,468,1.5097
24.2842,487,1.5710
24.2885,462,1.4903
24.2928,394,1.2710
24.2971,341,1.1000
24.3014,356,1.1484
24.3057,466,1.5032
24.3100,644,2.0774
24.3143,840,2.7097
24.3186,1001,3.2290
24.3229,1003,3.2355
24.3272,1002,3.2323
24.3315,1006,3.2452
24.3357,1001,3.2290
24.3400,904,2.9161
24.3444,666,2.1484
24.3487,517,1.6677
24.3530,429,1.3839
24.3573,391,1.2613
24.3616,418,1.3484
24.3659,465,1.5000
24.3702,465,1.5000
24.3745,422,1.3613
24.3788,398,1.2839
24.3831,427,1.3774
24.3874,460,1.4839
24.3917,446,1.4387
24.3960,412,1.3290
24.4003,417,1.3452
24.4046,458,1.4774
24.4089,472,1.5226
24.4132,440,1.4194
24.4175,414,1.3355
24.4218,439,1.4161
24.4261,480,1.5484
24.4304,479,1.5452
24.4347,444,1.4323
24.4390,436,1.4065
24.4433,473,1.5258
24.4476,501,1.6161
24.4519,479,1.5452
24.4562,446,1.4387
24.4610,463,1.4935
24.4654,508,1.6387
24.4698,516,1.6645
24.4740,481,1.5516
24.4783,460,1.4839
24.4826,490,1.5806
24.4871,526,1.6968
24.4914,517,1.6677
24.4957,486,1.5677
24.5000,495,1.5968
24.5043,539,1.7387
24.5086,559,1.8032
24.5129,534,1.7226
24.5172,509,1.6419
24.5216,534,1.7226
24.5259,577,1.8613
24.5302,581,1.8742
24.5345,549,1.7710
24.5388,542,1.7484
24.5431,578,1.8645
24.5474,613,1.9774
24.5517,599,1.9323
24.5560,565,1.8226
24.5603,569,1.8355
24.5646,604,1.9484
24.5689,604,1.9484
24.5732,556,1.7935
24.5775,516,1.6645
24.5818,526,1.6968
24.5861,551,1.7774
24.5904,536,1.7290
24.5947,487,1.5710
24.5990,467,1.5065
24.6033,494,1.5935
24.6076,514,1.6581
24.6119,490,1.5806
24.6162,451,1.4548
24.6205,454,1.4645
24.6248,489,1.5774
24.6291,497,1.6032
24.6334,459,1.4806
24.6377,438,1.4129
24.6420,465,1.5000
24.6463,502,1.6194
24.6507,490,1.5806
24.6550,447,1.4419
24.6593,440,1.4194
24.6635,476,1.5355
24.6678,498,1.6065
24.6722,476,1.5355
24.6765,442,1.4258
24.6808,457,1.4742
24.6851,501,1.6161
24.6894,510,1.6452
24.6937,472,1.5226
24.6980,450,1.4516
24.7023,476,1.5355
24.7066,509,1.6419
24.7110,497,1.6032
24.7153,460,1.4839
24.7196,459,1.4806
24.7239,498,1.6065
24.7282,517,1.6677
24.7325,486,1.5677
24.7368,455,1.4677
24.7411,473,1.5258
24.7454,515,1.6613
24.7497,519,1.6742
24.7541,480,1.5484
24.7585,465,1.5000
24.7629,497,1.6032
24.7673,524,1.6903
24.7716,503,1.6226
24.7759,467,1.5065
24.7802,475,1.5323
24.7845,514,1.6581
24.7888,525,1.6935
24.7932,487,1.5710
24.7975,463,1.4935
24.8018,493,1.5903
24.8061,532,1.7161
24.8104,528,1.7032
24.8147,488,1.5742
24.8190,483,1.5581
24.8233,528,1.7032
24.8276,570,1.8387
24.8319,565,1.8226
24.8362,533,1.7194
24.8405,532,1.7161
24.8448,561,1.8097
24.8491,561,1.8097
24.8534,515,1.6613
24.8577,492,1.5871
24.8620,514,1.6581
24.8663,542,1.7484
24.8707,526,1.6968
24.8750,485,1.5645
24.8793,475,1.5323
24.8836,510,1.6452
24.8879,529,1.7065
24.8922,500,1.6129
24.8965,467,1.5065
24.9008,482,1.5548
24.9051,521,1.6806
24.9094,522,1.6839
24.9137,484,1.5613
24.9180,467,1.5065
24.9223,497,1.6032
24.9266,529,1.7065
24.9309,512,1.6516
24.9352,462,1.4903
24.9395,433,1.3968
24.9438,424,1.3677
24.9482,404,1.3032
24.9525,357,1.1516
24.9568,352,1.1355
24.9611,492,1.5871
24.9654,731,2.3581
24.9697,966,3.1161
24.9740,1003,3.2355
24.9783,1005,3.2419
24.9826,1004,3.2387
24.9869,1002,3.2323
24.9912,992,3.2000
24.9955,760,2.4516
24.9998,546,1.7613
25.0041,487,1.5710
25.0084,473,1.5258
25.0127,434,1.4000
25.0175,405,1.3065
25.0220,433,1.3968
25.0268,468,1.5097
25.0313,448,1.4452
25.0357,407,1.3129
25.0402,412,1.3290
25.0446,457,1.4742
25.0491,469,1.5129
25.0534,435,1.4032
25.0576,416,1.3419
25.0618,442,1.4258
25.0661,477,1.5387
25.0703,469,1.5129
25.0745,432,1.3935
25.0787,427,1.3774
25.0830,466,1.5032
25.0872,494,1.5935
25.0914,473,1.5258
25.0957,441,1.4226
25.0999,449,1.4484
25.1041,491,1.5839
25.1084,506,1.6323
25.1126,477,1.5387
25.1168,451,1.4548
25.1211,474,1.5290
25.1253,517,1.6677
25.1295,519,1.6742
25.1337,486,1.5677
25.1380,472,1.5226
25.1422,507,1.6355
25.1464,541,1.7452
25.1507,530,1.7097
25.1549,496,1.6000
25.1592,500,1.6129
25.1635,547,1.7645
25.1678,575,1.8548
25.1721,550,1.7742
25.1764,524,1.6903
25.1807,544,1.7548
25.1850,595,1.9194
25.1893,604,1.9484
25.1936,570,1.8387
25.1979,556,1.7935
25.2022,585,1.8871
25.2065,620,2.0000
25.2108,605,1.9516
25.2151,560,1.8065
25.2194,548,1.7677
25.2237,573,1.8484
25.2280,578,1.8645
25.2322,534,1.7226
25.2365,493,1.5903
25.2415,508,1.6387
25.2459,538,1.7355
25.2502,519,1.6742
25.2545,472,1.5226
25.2588,460,1.4839
25.2632,488,1.5742
25.2675,504,1.6258
25.2717,475,1.5323
25.2760,442,1.4258
25.2803,453,1.4613
25.2847,491,1.5839
25.2889,496,1.6000
25.2932,459,1.4806
25.2975,441,1.4226
25.3018,467,1.5065
25.3061,501,1.6161
25.3104,490,1.5806
25.3147,453,1.4613
25.3190,451,1.4548
25.3233,488,1.5742
25.3276,505,1.6290
25.3319,474,1.5290
25.3362,443,1.4290
25.3405,460,1.4839
25.3448,504,1.6258
25.3491,509,1.6419
25.3534,470,1.5161
25.3580,455,1.4677
25.3624,490,1.5806
25.3668,517,1.6677
25.3711,499,1.6097
25.3754,461,1.4871
25.3797,462,1.4903
25.3840,499,1.6097
25.3884,512,1.6516
25.3927,481,1.5516
25.3970,457,1.4742
25.4014,481,1.5516
25.4058,516,1.6645
25.4101,508,1.6387
25.4144,469,1.5129
25.4187,465,1.5000
25.4230,508,1.6387
25.4273,531,1.7129
25.4316,502,1.6194
25.4360,464,1.4968
25.4402,477,1.5387
25.4445,523,1.6871
25.4489,529,1.7065
25.4532,491,1.5839
25.4575,476,1.5355
25.4618,508,1.6387
25.4660,539,1.7387
25.4703,527,1.7000
25.4746,501,1.6161
25.4788,522,1.6839
25.4833,575,1.8548
25.4875,587,1.8935
25.4918,549,1.7710
25.4961,508,1.6387
25.5003,513,1.6548
25.5046,548,1.7677
25.5089,549,1.7710
25.5131,508,1.6387
25.5174,481,1.5516
25.5216,506,1.6323
25.5259,536,1.7290
25.5302,522,1.6839
25.5344,479,1.5452
25.5387,472,1.5226
25.5429,509,1.6419
25.5472,531,1.7129
25.5515,504,1.6258
25.5558,470,1.5161
25.5601,479,1.5452
25.5643,521,1.6806
25.5691,521,1.6806
25.5734,484,1.5613
25.5776,466,1.5032
25.5819,494,1.5935
25.5862,513,1.6548
25.5905,461,1.4871
25.5947,378,1.2194
25.5989,347,1.1194
25.6032,381,1.2290
25.6079,444,1.4323
25.6122,563,1.8161
25.6165,744,2.4000
25.6208,998,3.2194
25.6250,1003,3.2355
25.6293,1004,3.2387
25.6336,1003,3.2355
25.6378,1002,3.2323
25.6421,953,3.0742
25.6464,728,2.3484
25.6508,531,1.7129
25.6551,424,1.3677
25.6595,412,1.3290
25.6638,456,1.4710
25.6682,474,1.5290
25.6725,438,1.4129
25.6768,408,1.3161
25.6811,429,1.3839
25.6854,463,1.4935
25.6897,458,1.4774
25.6940,423,1.3645
25.6983,419,1.3516
25.7026,458,1.4774
25.7069,485,1.5645
25.7112,461,1.4871
25.7155,430,1.3871
25.7198,441,1.4226
25.7241,479,1.5452
25.7284,486,1.5677
25.7327,453,1.4613
25.7370,433,1.3968
25.7414,464,1.4968
25.7457,505,1.6290
25.7500,499,1.6097
25.7543,462,1.4903
25.7590,461,1.4871
25.7633,503,1.6226
25.7676,522,1.6839
25.7719,492,1.5871
25.7762,467,1.5065
25.7805,490,1.5806
25.7848,533,1.7194
25.7891,537,1.7323
25.7939,505,1.6290
25.7982,498,1.6065
25.8025,536,1.7290
25.8068,566,1.8258
25.8111,545,1.7581
25.8154,516,1.6645
25.8197,533,1.7194
25.8240,582,1.8774
25.8283,597,1.9258
25.8326,567,1.8290
25.8369,549,1.7710
25.8412,582,1.8774
25.8455,622,2.0065
25.8498,615,1.9839
25.8541,574,1.8516
25.8584,571,1.8419
25.8628,604,1.9484
25.8671,619,1.9968
25.8714,577,1.8613
25.8757,528,1.7032
25.8800,530,1.7097
25.8843,558,1.8000
25.8886,550,1.7742
25.8929,500,1.6129
25.8972,469,1.5129
25.9015,489,1.5774
25.9058,516,1.6645
25.9101,497,1.6032
25.9144,455,1.4677
25.9187,447,1.4419
25.9230,483,1.5581
25.9273,500,1.6129
25.9316,467,1.5065
25.9359,435,1.4032
25.9402,451,1.4548
25.9445,493,1.5903
25.9488,498,1.6065
25.9531,461,1.4871
25.9574,443,1.4290
25.9617,469,1.5129
25.9660,497,1.6032
25.9703,480,1.5484
25.9746,442,1.4258
25.9789,447,1.4419
25.9832,492,1.5871
25.9875,512,1.6516
25.9918,479,1.5452
25.9961,448,1.4452
26.0005,471,1.5194
26.0047,512,1.6516
26.0090,507,1.6355
26.0134,464,1.4968
26.0181,451,1.4548
26.0224,489,1.5774
26.0267,518,1.6710
26.0310,501,1.6161
26.0353,464,1.4968
26.0396,471,1.5194
26.0439,509,1.6419
26.0482,514,1.6581
26.0525,477,1.5387
26.0568,456,1.4710
26.0611,484,1.5613
26.0654,521,1.6806
26.0697,514,1.6581
26.0740,475,1.5323
26.0783,470,1.5161
26.0826,509,1.6419
26.0869,529,1.7065
26.0912,498,1.6065
26.0955,465,1.5000
26.0998,483,1.5581
26.1041,530,1.7097
26.1084,532,1.7161
26.1127,489,1.5774
26.1170,471,1.5194
26.1214,506,1.6323
26.1257,540,1.7419
26.1300,525,1.6935
26.1342,488,1.5742
26.1385,497,1.6032
26.1429,558,1.8000
26.1472,598,1.9290
26.1515,568,1.8323
26.1558,528,1.7032
26.1601,534,1.7226
26.1644,561,1.8097
26.1687,551,1.7774
26.1730,508,1.6387
26.1773,496,1.6000
26.1816,529,1.7065
26.1859,552,1.7806
26.1902,523,1.6871
26.1945,472,1.5226
26.1988,467,1.5065
26.2031,505,1.6290
26.2077,524,1.6903
26.2120,493,1.5903
26.2163,468,1.5097
26.2206,489,1.5774
26.2249,525,1.6935
26.2292,522,1.6839
26.2335,485,1.5645
26.2378,474,1.5290
26.2425,508,1.6387
26.2468,525,1.6935
26.2511,490,1.5806
26.2555,433,1.3968
26.2599,405,1.3065
26.2644,413,1.3323
26.2687,408,1.3161
26.2730,410,1.3226
26.2773,527,1.7000
26.2816,747,2.4097
26.2859,963,3.1065
26.2902,1000,3.2258
26.2945,1003,3.2355
26.2988,1005,3.2419
26.3031,999,3.2226
26.3074,912,2.9419
26.3117,665,2.1452
26.3160,485,1.5645
26.3204,442,1.4258
26.3247,463,1.4935
26.3290,460,1.4839
26.3333,429,1.3839
26.3375,420,1.3548
26.3418,456,1.4710
26.3462,483,1.5581
