time_s,adc_raw,voltage
0.0000,392,1.2645
0.0045,387,1.2484
0.0089,408,1.3161
0.0134,419,1.3516
0.0178,401,1.2935
0.0222,380,1.2258
0.0266,391,1.2613
0.0310,412,1.3290
0.0354,418,1.3484
0.0399,400,1.2903
0.0443,392,1.2645
0.0487,416,1.3419
0.0531,433,1.3968
0.0575,424,1.3677
0.0619,412,1.3290
0.0664,421,1.3581
0.0708,442,1.4258
0.0754,448,1.4452
0.0799,428,1.3806
0.0843,418,1.3484
0.0886,440,1.4194
0.0931,459,1.4806
0.0976,451,1.4548
0.1020,440,1.4194
0.1064,456,1.4710
0.1109,481,1.5516
0.1153,490,1.5806
0.1197,471,1.5194
0.1242,460,1.4839
0.1286,483,1.5581
0.1331,502,1.6194
0.1375,498,1.6065
0.1418,492,1.5871
0.1462,504,1.6258
0.1506,521,1.6806
0.1550,528,1.7032
0.1594,512,1.6516
0.1638,506,1.6323
0.1682,532,1.7161
0.1726,551,1.7774
0.1769,546,1.7613
0.1813,531,1.7129
0.1856,534,1.7226
0.1900,555,1.7903
0.1943,564,1.8194
0.1986,543,1.7516
0.2030,525,1.6935
0.2073,533,1.7194
0.2116,545,1.7581
0.2161,535,1.7258
0.2208,505,1.6290
0.2255,487,1.5710
0.2301,498,1.6065
0.2346,501,1.6161
0.2394,467,1.5065
0.2437,442,1.4258
0.2481,449,1.4484
0.2524,458,1.4774
0.2570,444,1.4323
0.2618,423,1.3645
0.2666,431,1.3903
0.2714,454,1.4645
0.2763,454,1.4645
0.2809,435,1.4032
0.2853,428,1.3806
0.2896,446,1.4387
0.2939,461,1.4871
0.2983,446,1.4387
0.3026,434,1.4000
0.3070,446,1.4387
0.3113,469,1.5129
0.3157,473,1.5258
0.3200,452,1.4581
0.3243,437,1.4097
0.3285,449,1.4484
0.3327,460,1.4839
0.3369,451,1.4548
0.3411,432,1.3935
0.3453,427,1.3774
0.3494,450,1.4516
0.3536,467,1.5065
0.3579,450,1.4516
0.3621,431,1.3903
0.3664,433,1.3968
0.3706,447,1.4419
0.3749,454,1.4645
0.3792,435,1.4032
0.3834,420,1.3548
0.3876,438,1.4129
0.3919,452,1.4581
0.3961,445,1.4355
0.4004,420,1.3548
0.4047,412,1.3290
0.4090,434,1.4000
0.4132,451,1.4548
0.4175,441,1.4226
0.4217,425,1.3710
0.4259,426,1.3742
0.4301,441,1.4226
0.4343,449,1.4484
0.4385,431,1.3903
0.4427,412,1.3290
0.4468,419,1.3516
0.4510,437,1.4097
0.4552,447,1.4419
0.4594,429,1.3839
0.4636,415,1.3387
0.4678,429,1.3839
0.4719,444,1.4323
0.4762,445,1.4355
0.4804,427,1.3774
0.4846,417,1.3452
0.4888,437,1.4097
0.4929,455,1.4677
0.4971,449,1.4484
0.5014,432,1.3935
0.5055,427,1.3774
0.5097,442,1.4258
0.5139,451,1.4548
0.5181,438,1.4129
0.5223,427,1.3774
0.5265,438,1.4129
0.5307,457,1.4742
0.5349,471,1.5194
0.5391,456,1.4710
0.5434,449,1.4484
0.5477,466,1.5032
0.5520,482,1.5548
0.5562,477,1.5387
0.5605,461,1.4871
0.5648,455,1.4677
0.5692,480,1.5484
0.5734,496,1.6000
0.5777,478,1.5419
0.5820,456,1.4710
0.5863,455,1.4677
0.5906,462,1.4903
0.5949,468,1.5097
0.5992,449,1.4484
0.6036,436,1.4065
0.6079,456,1.4710
0.6122,479,1.5452
0.6165,477,1.5387
0.6207,456,1.4710
0.6250,441,1.4226
0.6292,454,1.4645
0.6335,462,1.4903
0.6377,441,1.4226
0.6420,416,1.3419
0.6463,414,1.3355
0.6505,441,1.4226
0.6548,493,1.5903
0.6591,547,1.7645
0.6634,622,2.0065
0.6677,758,2.4452
0.6719,918,2.9613
0.6762,1000,3.2258
0.6805,1002,3.2323
0.6848,1001,3.2290
0.6892,998,3.2194
0.6934,917,2.9581
0.6977,722,2.3290
0.7020,542,1.7484
0.7062,445,1.4355
0.7105,428,1.3806
0.7147,436,1.4065
0.7190,423,1.3645
0.7232,412,1.3290
0.7274,427,1.3774
0.7316,438,1.4129
0.7357,435,1.4032
0.7399,413,1.3323
0.7442,401,1.2935
0.7484,426,1.3742
0.7527,449,1.4484
0.7570,447,1.4419
0.7613,428,1.3806
0.7655,420,1.3548
0.7698,446,1.4387
0.7741,462,1.4903
0.7784,445,1.4355
0.7826,433,1.3968
0.7868,442,1.4258
0.7910,460,1.4839
0.7952,473,1.5258
0.7994,458,1.4774
0.8035,450,1.4516
0.8078,469,1.5129
0.8120,490,1.5806
0.8162,498,1.6065
0.8205,484,1.5613
0.8248,476,1.5355
0.8291,499,1.6097
0.8333,519,1.6742
0.8375,513,1.6548
0.8417,501,1.6161
0.8459,507,1.6355
0.8502,532,1.7161
0.8544,545,1.7581
0.8586,531,1.7129
0.8629,523,1.6871
0.8671,543,1.7516
0.8714,563,1.8161
0.8756,573,1.8484
0.8799,560,1.8065
0.8841,552,1.7806
0.8883,574,1.8516
0.8925,595,1.9194
0.8967,596,1.9226
0.9008,590,1.9032
0.9050,587,1.8935
0.9092,608,1.9613
0.9134,629,2.0290
0.9177,624,2.0129
0.9220,608,1.9613
0.9263,613,1.9774
0.9305,631,2.0355
0.9349,638,2.0581
0.9392,612,1.9742
0.9436,589,1.9000
0.9478,590,1.9032
0.9521,602,1.9419
0.9564,596,1.9226
0.9607,571,1.8419
0.9649,549,1.7710
0.9691,561,1.8097
0.9734,568,1.8323
0.9776,551,1.7774
0.9819,530,1.7097
0.9862,527,1.7000
0.9904,545,1.7581
0.9947,553,1.7839
0.9990,535,1.7258
1.0032,519,1.6742
1.0075,529,1.7065
1.0117,549,1.7710
1.0159,555,1.7903
1.0201,538,1.7355
1.0243,528,1.7032
1.0285,553,1.7839
1.0327,581,1.8742
1.0369,578,1.8645
1.0410,554,1.7871
1.0452,539,1.7387
1.0494,557,1.7968
1.0536,575,1.8548
1.0578,574,1.8516
1.0621,571,1.8419
1.0662,572,1.8452
1.0704,582,1.8774
1.0746,585,1.8871
1.0788,567,1.8290
1.0831,552,1.7806
1.0872,561,1.8097
1.0914,580,1.8710
1.0956,588,1.8968
1.0998,570,1.8387
1.1041,557,1.7968
1.1083,576,1.8581
1.1126,590,1.9032
1.1169,589,1.9000
1.1212,571,1.8419
1.1255,565,1.8226
1.1298,587,1.8935
1.1341,605,1.9516
1.1383,590,1.9032
1.1427,570,1.8387
1.1470,572,1.8452
1.1513,590,1.9032
1.1555,600,1.9355
1.1598,580,1.8710
1.1640,560,1.8065
1.1683,572,1.8452
1.1725,593,1.9129
1.1768,594,1.9161
1.1810,576,1.8581
1.1853,571,1.8419
1.1895,598,1.9290
1.1937,612,1.9742
1.1980,596,1.9226
1.2023,575,1.8548
1.2066,578,1.8645
1.2109,606,1.9548
1.2152,619,1.9968
1.2194,594,1.9161
1.2236,575,1.8548
1.2279,588,1.8968
1.2321,604,1.9484
1.2364,606,1.9548
1.2406,590,1.9032
1.2449,585,1.8871
1.2491,606,1.9548
1.2533,624,2.0129
1.2576,616,1.9871
1.2618,602,1.9419
1.2661,607,1.9581
1.2702,632,2.0387
1.2744,652,2.1032
1.2787,641,2.0677
1.2829,621,2.0032
1.2871,620,2.0000
1.2913,630,2.0323
1.2956,626,2.0194
1.2998,595,1.9194
1.3040,575,1.8548
1.3082,582,1.8774
1.3124,597,1.9258
1.3166,599,1.9323
1.3208,578,1.8645
1.3250,566,1.8258
1.3292,583,1.8806
1.3334,600,1.9355
1.3376,591,1.9065
1.3418,568,1.8323
1.3460,553,1.7839
1.3502,561,1.8097
1.3544,566,1.8258
1.3585,542,1.7484
1.3628,523,1.6871
1.3670,536,1.7290
1.3711,594,1.9161
1.3753,673,2.1710
1.3795,744,2.4000
1.3838,848,2.7355
1.3879,992,3.2000
1.3921,1003,3.2355
1.3963,1003,3.2355
1.4006,1002,3.2323
1.4048,1002,3.2323
1.4090,996,3.2129
1.4132,878,2.8323
1.4173,692,2.2323
1.4216,545,1.7581
1.4258,484,1.5613
1.4300,494,1.5935
1.4344,510,1.6452
1.4386,496,1.6000
1.4429,482,1.5548
1.4471,482,1.5548
1.4514,496,1.6000
1.4556,499,1.6097
1.4599,476,1.5355
1.4641,464,1.4968
1.4684,478,1.5419
1.4726,495,1.5968
1.4769,497,1.6032
1.4811,483,1.5581
1.4853,473,1.5258
1.4895,489,1.5774
1.4937,501,1.6161
1.4979,492,1.5871
1.5021,478,1.5419
1.5064,478,1.5419
1.5106,499,1.6097
1.5147,516,1.6645
1.5189,502,1.6194
1.5231,484,1.5613
1.5274,490,1.5806
1.5316,509,1.6419
1.5359,518,1.6710
1.5401,501,1.6161
1.5443,488,1.5742
1.5485,507,1.6355
1.5527,525,1.6935
1.5569,528,1.7032
1.5611,514,1.6581
1.5653,504,1.6258
1.5695,522,1.6839
1.5736,537,1.7323
1.5778,530,1.7097
1.5820,516,1.6645
1.5862,516,1.6645
1.5904,542,1.7484
1.5946,560,1.8065
1.5988,547,1.7645
1.6030,537,1.7323
1.6072,545,1.7581
1.6114,564,1.8194
1.6155,577,1.8613
1.6197,562,1.8129
1.6239,549,1.7710
1.6281,567,1.8290
1.6323,587,1.8935
1.6366,585,1.8871
1.6409,561,1.8097
1.6452,544,1.7548
1.6495,558,1.8000
1.6537,567,1.8290
1.6580,547,1.7645
1.6625,519,1.6742
1.6668,506,1.6323
1.6711,513,1.6548
1.6754,515,1.6613
1.6796,486,1.5677
1.6839,458,1.4774
1.6881,456,1.4710
1.6924,460,1.4839
1.6966,453,1.4613
1.7009,427,1.3774
1.7052,415,1.3387
1.7095,433,1.3968
1.7137,447,1.4419
1.7180,438,1.4129
1.7222,419,1.3516
1.7265,418,1.3484
1.7308,441,1.4226
1.7350,454,1.4645
1.7393,434,1.4000
1.7436,416,1.3419
1.7478,425,1.3710
1.7521,445,1.4355
1.7564,454,1.4645
1.7606,431,1.3903
1.7649,415,1.3387
1.7692,436,1.4065
1.7734,450,1.4516
1.7776,444,1.4323
1.7819,423,1.3645
1.7861,411,1.3258
1.7904,429,1.3839
1.7946,444,1.4323
1.7989,428,1.3806
1.8032,412,1.3290
1.8074,417,1.3452
1.8116,434,1.4000
1.8158,440,1.4194
1.8200,414,1.3355
1.8242,395,1.2742
1.8283,407,1.3129
1.8326,425,1.3710
1.8371,423,1.3645
1.8413,405,1.3065
1.8455,391,1.2613
1.8497,403,1.3000
1.8539,415,1.3387
1.8581,406,1.3097
1.8623,389,1.2548
1.8665,385,1.2419
1.8707,401,1.2935
1.8749,415,1.3387
1.8791,398,1.2839
1.8833,383,1.2355
1.8875,386,1.2452
1.8918,406,1.3097
1.8961,416,1.3419
1.9003,393,1.2677
1.9045,378,1.2194
1.9087,390,1.2581
1.9129,412,1.3290
1.9172,411,1.3258
1.9215,389,1.2548
1.9258,377,1.2161
1.9300,396,1.2774
1.9343,417,1.3452
1.9386,410,1.3226
1.9428,397,1.2806
1.9471,401,1.2935
1.9513,419,1.3516
1.9556,434,1.4000
1.9598,421,1.3581
1.9640,414,1.3355
1.9683,434,1.4000
1.9725,450,1.4516
1.9767,443,1.4290
1.9809,413,1.3323
1.9851,397,1.2806
1.9894,408,1.3161
1.9937,417,1.3452
1.9980,403,1.3000
2.0024,380,1.2258
2.0066,374,1.2065
2.0109,393,1.2677
2.0151,404,1.3032
2.0194,386,1.2452
2.0236,369,1.1903
2.0278,376,1.2129
2.0320,392,1.2645
2.0362,398,1.2839
2.0404,373,1.2032
2.0446,353,1.1387
2.0487,360,1.1613
2.0529,371,1.1968
2.0572,372,1.2000
2.0614,382,1.2323
2.0657,435,1.4032
2.0700,544,1.7548
2.0743,675,2.1774
2.0785,789,2.5452
2.0828,880,2.8387
2.0870,959,3.0935
2.0913,969,3.1258
2.0955,876,2.8258
2.0998,720,2.3226
2.1040,582,1.8774
2.1082,497,1.6032
2.1124,423,1.3645
2.1166,356,1.1484
2.1208,305,0.9839
2.1250,291,0.9387
2.1291,315,1.0161
2.1333,340,1.0968
2.1375,345,1.1129
2.1417,333,1.0742
2.1459,323,1.0419
2.1501,343,1.1065
2.1543,362,1.1677
2.1586,353,1.1387
2.1629,335,1.0806
2.1673,337,1.0871
2.1717,361,1.1645
2.1760,372,1.2000
2.1804,358,1.1548
2.1848,345,1.1129
2.1893,364,1.1742
2.1937,382,1.2323
2.1981,379,1.2226
2.2025,363,1.1710
2.2069,365,1.1774
2.2112,389,1.2548
2.2156,407,1.3129
2.2199,392,1.2645
2.2242,381,1.2290
2.2286,399,1.2871
2.2329,420,1.3548
2.2373,423,1.3645
2.2416,408,1.3161
2.2460,404,1.3032
2.2503,428,1.3806
2.2546,450,1.4516
2.2590,443,1.4290
2.2633,430,1.3871
2.2676,442,1.4258
2.2719,470,1.5161
2.2762,483,1.5581
2.2805,467,1.5065
2.2849,461,1.4871
2.2893,489,1.5774
2.2936,512,1.6516
2.2980,513,1.6548
2.3023,504,1.6258
2.3066,504,1.6258
2.3110,529,1.7065
2.3153,544,1.7548
2.3196,531,1.7129
2.3240,521,1.6806
2.3283,534,1.7226
2.3327,556,1.7935
2.3370,561,1.8097
2.3413,540,1.7419
2.3456,522,1.6839
2.3500,531,1.7129
2.3543,536,1.7290
2.3587,514,1.6581
2.3630,487,1.5710
2.3673,479,1.5452
2.3717,488,1.5742
2.3760,489,1.5774
2.3804,461,1.4871
2.3847,443,1.4290
2.3891,456,1.4710
2.3934,472,1.5226
2.3978,467,1.5065
2.4021,448,1.4452
2.4065,444,1.4323
2.4108,469,1.5129
2.4151,482,1.5548
2.4195,465,1.5000
2.4239,453,1.4613
2.4282,465,1.5000
2.4326,487,1.5710
2.4370,494,1.5935
2.4413,478,1.5419
2.4456,468,1.5097
2.4499,491,1.5839
2.4543,509,1.6419
2.4586,503,1.6226
2.4630,484,1.5613
2.4674,489,1.5774
2.4717,513,1.6548
2.4761,526,1.6968
2.4804,503,1.6226
2.4848,489,1.5774
2.4891,504,1.6258
2.4935,520,1.6774
2.4978,516,1.6645
2.5021,498,1.6065
2.5064,492,1.5871
2.5107,518,1.6710
2.5150,534,1.7226
2.5193,517,1.6677
2.5237,496,1.6000
2.5279,502,1.6194
2.5323,520,1.6774
2.5366,529,1.7065
2.5409,507,1.6355
2.5452,494,1.5935
2.5495,511,1.6484
2.5538,530,1.7097
2.5581,526,1.6968
2.5624,508,1.6387
2.5667,502,1.6194
2.5710,524,1.6903
2.5753,540,1.7419
2.5796,525,1.6935
2.5839,509,1.6419
2.5882,515,1.6613
2.5926,531,1.7129
2.5969,538,1.7355
2.6012,522,1.6839
2.6055,512,1.6516
2.6098,533,1.7194
2.6141,556,1.7935
2.6184,550,1.7742
2.6227,532,1.7161
2.6270,535,1.7258
2.6313,566,1.8258
2.6357,590,1.9032
2.6399,576,1.8581
2.6442,555,1.7903
2.6485,556,1.7935
2.6527,566,1.8258
2.6569,561,1.8097
2.6612,533,1.7194
2.6654,512,1.6516
2.6697,527,1.7000
2.6740,545,1.7581
2.6782,541,1.7452
2.6824,523,1.6871
2.6867,516,1.6645
2.6909,535,1.7258
2.6952,549,1.7710
2.6994,536,1.7290
2.7036,516,1.6645
2.7078,515,1.6613
2.7120,526,1.6968
2.7162,529,1.7065
2.7204,501,1.6161
2.7246,484,1.5613
2.7287,515,1.6613
2.7329,580,1.8710
2.7371,660,2.1290
2.7413,739,2.3839
2.7455,849,2.7387
2.7497,981,3.1645
2.7539,1001,3.2290
2.7581,1002,3.2323
2.7623,1000,3.2258
2.7665,997,3.2161
2.7707,905,2.9194
2.7750,756,2.4387
2.7793,614,1.9806
2.7836,497,1.6032
2.7879,451,1.4548
2.7922,459,1.4806
2.7965,472,1.5226
2.8007,457,1.4742
2.8050,449,1.4484
2.8092,469,1.5129
2.8135,485,1.5645
2.8178,482,1.5548
2.8220,462,1.4903
2.8262,452,1.4581
2.8304,473,1.5258
2.8346,488,1.5742
2.8388,478,1.5419
2.8430,463,1.4935
2.8473,460,1.4839
2.8514,483,1.5581
2.8556,496,1.6000
2.8598,481,1.5516
2.8640,468,1.5097
2.8682,475,1.5323
2.8725,495,1.5968
2.8767,504,1.6258
2.8810,485,1.5645
2.8853,474,1.5290
2.8896,490,1.5806
2.8939,512,1.6516
2.8982,510,1.6452
2.9025,491,1.5839
2.9068,486,1.5677
2.9111,511,1.6484
2.9153,531,1.7129
2.9196,518,1.6710
2.9238,502,1.6194
2.9281,508,1.6387
2.9324,529,1.7065
2.9366,543,1.7516
2.9408,525,1.6935
2.9451,513,1.6548
2.9493,532,1.7161
2.9536,555,1.7903
2.9578,559,1.8032
2.9621,543,1.7516
2.9663,537,1.7323
2.9705,556,1.7935
2.9747,577,1.8613
2.9790,571,1.8419
2.9832,555,1.7903
2.9874,551,1.7774
2.9915,571,1.8419
2.9957,584,1.8839
3.0000,569,1.8355
3.0042,551,1.7774
3.0084,554,1.7871
3.0126,570,1.8387
3.0167,572,1.8452
3.0209,538,1.7355
3.0252,513,1.6548
3.0293,517,1.6677
3.0335,523,1.6871
3.0377,510,1.6452
3.0419,479,1.5452
3.0461,461,1.4871
3.0504,473,1.5258
3.0545,482,1.5548
3.0587,467,1.5065
3.0629,444,1.4323
3.0671,435,1.4032
3.0714,454,1.4645
3.0756,466,1.5032
3.0798,450,1.4516
3.0839,437,1.4097
3.0882,438,1.4129
3.0924,455,1.4677
3.0967,466,1.5032
3.1009,446,1.4387
3.1051,432,1.3935
3.1094,446,1.4387
3.1137,464,1.4968
3.1179,464,1.4968
3.1222,448,1.4452
3.1265,439,1.4161
3.1308,459,1.4806
3.1350,472,1.5226
3.1393,458,1.4774
3.1435,438,1.4129
3.1478,438,1.4129
3.1520,457,1.4742
3.1562,465,1.5000
3.1605,443,1.4290
3.1647,424,1.3677
3.1690,437,1.4097
3.1732,454,1.4645
3.1774,453,1.4613
3.1816,432,1.3935
3.1858,418,1.3484
3.1901,434,1.4000
3.1943,446,1.4387
3.1986,434,1.4000
3.2030,414,1.3355
3.2072,409,1.3194
3.2115,431,1.3903
3.2158,442,1.4258
3.2200,426,1.3742
3.2243,407,1.3129
3.2286,410,1.3226
3.2329,426,1.3742
3.2371,434,1.4000
3.2414,413,1.3323
3.2457,399,1.2871
3.2499,412,1.3290
3.2542,431,1.3903
3.2584,426,1.3742
3.2626,407,1.3129
3.2668,399,1.2871
3.2710,417,1.3452
3.2752,429,1.3839
3.2794,416,1.3419
3.2836,400,1.2903
3.2878,403,1.3000
3.2920,426,1.3742
3.2962,443,1.4290
3.3004,429,1.3839
3.3046,413,1.3323
3.3088,425,1.3710
3.3131,445,1.4355
3.3173,458,1.4774
3.3214,446,1.4387
3.3256,439,1.4161
3.3299,453,1.4613
3.3341,460,1.4839
3.3383,449,1.4484
3.3426,421,1.3581
3.3469,403,1.3000
3.3512,417,1.3452
3.3555,426,1.3742
3.3598,410,1.3226
3.3640,390,1.2581
3.3683,392,1.2645
3.3726,411,1.3258
3.3769,419,1.3516
3.3812,400,1.2903
3.3855,384,1.2387
3.3898,397,1.2806
3.3941,411,1.3258
3.3984,400,1.2903
3.4027,370,1.1935
3.4070,353,1.1387
3.4113,373,1.2032
3.4156,406,1.3097
3.4199,443,1.4290
3.4242,503,1.6226
3.4285,608,1.9613
3.4327,758,2.4452
3.4370,904,2.9161
3.4412,995,3.2097
3.4455,999,3.2226
3.4497,996,3.2129
3.4540,900,2.9032
3.4582,723,2.3323
3.4626,553,1.7839
3.4668,426,1.3742
3.4711,375,1.2097
3.4753,363,1.1710
3.4796,350,1.1290
3.4838,337,1.0871
3.4881,343,1.1065
3.4923,365,1.1774
3.4966,374,1.2065
3.5009,355,1.1452
3.5051,341,1.1000
3.5094,354,1.1419
3.5136,372,1.2000
3.5178,378,1.2194
3.5221,357,1.1516
3.5264,348,1.1226
3.5307,368,1.1871
3.5350,385,1.2419
3.5392,377,1.2161
3.5435,365,1.1774
3.5477,366,1.1806
3.5519,386,1.2452
3.5562,400,1.2903
3.5605,386,1.2452
3.5647,373,1.2032
3.5690,384,1.2387
3.5732,404,1.3032
3.5775,413,1.3323
3.5818,395,1.2742
3.5861,384,1.2387
3.5904,404,1.3032
3.5946,427,1.3774
3.5989,426,1.3742
3.6032,411,1.3258
3.6075,408,1.3161
3.6117,436,1.4065
3.6160,454,1.4645
3.6203,441,1.4226
3.6245,431,1.3903
3.6288,441,1.4226
3.6331,463,1.4935
3.6374,476,1.5355
3.6416,461,1.4871
3.6459,454,1.4645
3.6502,476,1.5355
3.6545,500,1.6129
3.6588,499,1.6097
3.6630,486,1.5677
3.6672,484,1.5613
3.6714,508,1.6387
3.6756,526,1.6968
3.6801,512,1.6516
3.6844,497,1.6032
3.6887,502,1.6194
3.6930,519,1.6742
3.6972,526,1.6968
3.7015,503,1.6226
3.7057,483,1.5581
3.7099,488,1.5742
3.7141,494,1.5935
3.7183,482,1.5548
3.7227,452,1.4581
3.7270,435,1.4032
3.7313,450,1.4516
3.7355,459,1.4806
3.7397,439,1.4161
3.7440,417,1.3452
3.7482,412,1.3290
3.7524,430,1.3871
3.7566,443,1.4290
3.7608,427,1.3774
3.7650,411,1.3258
3.7692,417,1.3452
3.7734,436,1.4065
3.7776,448,1.4452
3.7818,433,1.3968
3.7860,420,1.3548
3.7902,438,1.4129
3.7945,457,1.4742
3.7987,456,1.4710
3.8029,441,1.4226
3.8072,436,1.4065
3.8115,457,1.4742
3.8157,474,1.5290
3.8200,463,1.4935
3.8243,445,1.4355
3.8285,449,1.4484
3.8328,467,1.5065
3.8371,480,1.5484
3.8414,463,1.4935
3.8456,450,1.4516
3.8498,464,1.4968
3.8540,480,1.5484
3.8583,479,1.5452
3.8625,460,1.4839
3.8668,449,1.4484
3.8711,467,1.5065
3.8754,479,1.5452
3.8798,465,1.5000
3.8841,447,1.4419
3.8885,450,1.4516
3.8929,469,1.5129
3.8973,481,1.5516
3.9017,459,1.4806
3.9062,447,1.4419
3.9107,466,1.5032
3.9151,482,1.5548
3.9194,474,1.5290
3.9238,457,1.4742
3.9281,458,1.4774
3.9325,480,1.5484
3.9368,495,1.5968
3.9412,473,1.5258
3.9455,456,1.4710
3.9498,470,1.5161
3.9541,488,1.5742
3.9584,491,1.5839
3.9628,473,1.5258
3.9671,466,1.5032
3.9714,487,1.5710
3.9757,501,1.6161
3.9800,490,1.5806
3.9844,473,1.5258
3.9887,480,1.5484
3.9930,505,1.6290
3.9974,521,1.6806
4.0017,500,1.6129
4.0060,487,1.5710
4.0103,508,1.6387
4.0147,531,1.7129
4.0191,535,1.7258
4.0234,525,1.6935
4.0277,521,1.6806
4.0320,537,1.7323
4.0364,544,1.7548
4.0407,521,1.6806
4.0450,496,1.6000
4.0493,496,1.6000
4.0536,508,1.6387
4.0580,510,1.6452
4.0623,488,1.5742
4.0667,476,1.5355
4.0710,496,1.6000
4.0754,513,1.6548
4.0797,501,1.6161
4.0841,484,1.5613
4.0885,485,1.5645
4.0928,501,1.6161
4.0972,503,1.6226
4.1015,475,1.5323
4.1058,450,1.4516
4.1101,456,1.4710
4.1145,480,1.5484
4.1189,516,1.6645
4.1232,571,1.8419
4.1276,658,2.1226
4.1319,798,2.5742
4.1363,954,3.0774
4.1407,1000,3.2258
4.1450,1003,3.2355
4.1494,1003,3.2355
4.1537,999,3.2226
4.1580,914,2.9484
4.1624,713,2.3000
4.1667,545,1.7581
4.1711,473,1.5258
4.1754,458,1.4774
4.1798,445,1.4355
4.1841,432,1.3935
4.1885,437,1.4097
4.1928,462,1.4903
4.1971,474,1.5290
4.2015,450,1.4516
4.2058,438,1.4129
4.2101,455,1.4677
4.2145,474,1.5290
4.2188,472,1.5226
4.2231,455,1.4677
4.2275,450,1.4516
4.2318,473,1.5258
4.2362,488,1.5742
4.2405,475,1.5323
4.2449,462,1.4903
4.2492,471,1.5194
4.2536,491,1.5839
4.2580,500,1.6129
4.2623,482,1.5548
4.2666,473,1.5258
4.2709,492,1.5871
4.2752,512,1.6516
4.2795,510,1.6452
4.2838,495,1.5968
4.2881,497,1.6032
4.2924,520,1.6774
4.2968,536,1.7290
4.3011,521,1.6806
4.3054,511,1.6484
4.3097,526,1.6968
4.3140,546,1.7613
4.3183,550,1.7742
4.3226,534,1.7226
4.3269,529,1.7065
4.3313,553,1.7839
4.3356,573,1.8484
4.3399,568,1.8323
4.3442,554,1.7871
4.3485,561,1.8097
4.3528,588,1.8968
4.3571,603,1.9452
4.3614,586,1.8903
4.3657,576,1.8581
4.3700,592,1.9097
4.3743,612,1.9742
4.3786,611,1.9710
4.3829,595,1.9194
4.3872,588,1.8968
4.3916,610,1.9677
4.3959,622,2.0065
4.4002,606,1.9548
4.4045,581,1.8742
4.4088,576,1.8581
4.4131,586,1.8903
4.4174,586,1.8903
4.4216,557,1.7968
4.4259,532,1.7161
4.4301,535,1.7258
4.4344,543,1.7516
4.4386,536,1.7290
4.4428,511,1.6484
4.4470,495,1.5968
4.4512,514,1.6581
4.4554,531,1.7129
4.4595,524,1.6903
4.4638,505,1.6290
4.4680,497,1.6032
4.4722,520,1.6774
4.4764,535,1.7258
4.4806,521,1.6806
4.4849,505,1.6290
4.4891,510,1.6452
4.4932,533,1.7194
4.4975,545,1.7581
4.5017,526,1.6968
4.5060,513,1.6548
4.5101,529,1.7065
4.5144,546,1.7613
4.5185,552,1.7806
4.5227,531,1.7129
4.5269,520,1.6774
4.5311,539,1.7387
4.5353,555,1.7903
4.5395,550,1.7742
4.5437,531,1.7129
4.5479,525,1.6935
4.5521,544,1.7548
4.5563,557,1.7968
4.5605,542,1.7484
4.5647,521,1.6806
4.5690,523,1.6871
4.5731,543,1.7516
4.5773,552,1.7806
4.5816,534,1.7226
4.5858,519,1.6742
4.5900,529,1.7065
4.5943,546,1.7613
4.5985,547,1.7645
4.6028,526,1.6968
4.6070,513,1.6548
4.6112,529,1.7065
4.6154,546,1.7613
4.6196,537,1.7323
4.6238,519,1.6742
4.6281,512,1.6516
4.6322,534,1.7226
4.6364,547,1.7645
4.6406,534,1.7226
4.6448,517,1.6677
4.6490,521,1.6806
4.6532,542,1.7484
4.6574,552,1.7806
4.6616,534,1.7226
4.6658,517,1.6677
4.6700,526,1.6968
4.6742,545,1.7581
4.6785,552,1.7806
4.6827,532,1.7161
4.6869,521,1.6806
4.6911,541,1.7452
4.6953,556,1.7935
4.6995,549,1.7710
4.7037,534,1.7226
4.7079,526,1.6968
4.7122,547,1.7645
4.7164,562,1.8129
4.7206,548,1.7677
4.7248,532,1.7161
4.7290,536,1.7290
4.7332,558,1.8000
4.7374,570,1.8387
4.7416,553,1.7839
4.7458,544,1.7548
4.7500,560,1.8065
4.7542,580,1.8710
4.7584,585,1.8871
4.7626,562,1.8129
4.7668,552,1.7806
4.7710,564,1.8194
4.7752,576,1.8581
4.7795,560,1.8065
4.7837,534,1.7226
4.7878,524,1.6903
4.7921,542,1.7484
4.7962,558,1.8000
4.8004,545,1.7581
4.8046,530,1.7097
4.8088,532,1.7161
4.8130,551,1.7774
4.8173,561,1.8097
4.8214,539,1.7387
4.8256,523,1.6871
4.8298,526,1.6968
4.8340,534,1.7226
4.8382,531,1.7129
4.8424,502,1.6194
4.8466,492,1.5871
4.8508,541,1.7452
4.8550,622,2.0065
4.8591,703,2.2677
4.8633,793,2.5581
4.8676,911,2.9387
4.8718,1002,3.2323
4.8760,1002,3.2323
4.8803,1002,3.2323
4.8846,1000,3.2258
4.8888,971,3.1323
4.8932,826,2.6645
4.8976,679,2.1903
4.9019,536,1.7290
4.9061,459,1.4806
4.9103,455,1.4677
4.9146,479,1.5452
4.9189,488,1.5742
4.9232,473,1.5258
4.9276,465,1.5000
4.9319,485,1.5645
4.9362,500,1.6129
4.9405,490,1.5806
4.9447,475,1.5323
4.9490,479,1.5452
4.9532,500,1.6129
4.9575,512,1.6516
4.9617,494,1.5935
4.9660,479,1.5452
4.9703,495,1.5968
4.9745,516,1.6645
4.9787,521,1.6806
4.9829,501,1.6161
4.9871,494,1.5935
4.9913,514,1.6581
4.9954,530,1.7097
4.9997,529,1.7065
5.0039,512,1.6516
5.0154,546,1.7613
5.0198,547,1.7645
5.0241,533,1.7194
5.0283,528,1.7032
5.0326,546,1.7613
5.0368,562,1.8129
5.0410,549,1.7710
5.0451,535,1.7258
5.0493,542,1.7484
5.0535,564,1.8194
5.0577,577,1.8613
5.0619,563,1.8161
5.0662,555,1.7903
5.0704,573,1.8484
5.0747,597,1.9258
5.0790,604,1.9484
5.0833,590,1.9032
5.0876,586,1.8903
5.0919,611,1.9710
5.0962,630,2.0323
5.1005,623,2.0097
5.1048,603,1.9452
5.1092,608,1.9613
5.1134,629,2.0290
5.1177,641,2.0677
5.1220,624,2.0129
5.1263,607,1.9581
5.1305,617,1.9903
5.1348,632,2.0387
5.1390,626,2.0194
5.1432,597,1.9258
5.1474,574,1.8516
5.1516,577,1.8613
5.1557,583,1.8806
5.1599,567,1.8290
5.1641,539,1.7387
5.1684,522,1.6839
5.1726,537,1.7323
5.1768,545,1.7581
5.1810,525,1.6935
5.1853,504,1.6258
5.1894,504,1.6258
5.1936,520,1.6774
5.1978,531,1.7129
5.2020,513,1.6548
5.2062,499,1.6097
5.2104,511,1.6484
5.2147,532,1.7161
5.2190,537,1.7323
5.2233,519,1.6742
5.2276,505,1.6290
5.2318,528,1.7032
5.2361,548,1.7677
5.2404,538,1.7355
5.2447,522,1.6839
5.2490,521,1.6806
5.2533,545,1.7581
5.2576,558,1.8000
5.2619,540,1.7419
5.2662,524,1.6903
5.2704,538,1.7355
5.2746,554,1.7871
5.2788,557,1.7968
5.2831,534,1.7226
5.2873,522,1.6839
5.2916,539,1.7387
5.2958,555,1.7903
5.3000,549,1.7710
5.3043,529,1.7065
5.3086,520,1.6774
5.3128,541,1.7452
5.3170,554,1.7871
5.3213,539,1.7387
5.3255,518,1.6710
5.3297,518,1.6710
5.3338,539,1.7387
5.3380,551,1.7774
5.3422,527,1.7000
5.3464,508,1.6387
5.3506,521,1.6806
5.3548,542,1.7484
5.3590,544,1.7548
5.3632,521,1.6806
5.3674,511,1.6484
5.3716,528,1.7032
5.3759,545,1.7581
5.3801,538,1.7355
5.3844,520,1.6774
5.3886,514,1.6581
5.3928,531,1.7129
5.3970,544,1.7548
5.4013,528,1.7032
5.4055,513,1.6548
5.4098,518,1.6710
5.4141,541,1.7452
5.4184,547,1.7645
5.4226,526,1.6968
5.4269,512,1.6516
5.4313,528,1.7032
5.4355,547,1.7645
5.4398,542,1.7484
5.4440,523,1.6871
5.4483,512,1.6516
5.4525,534,1.7226
5.4567,552,1.7806
5.4608,546,1.7613
5.4650,532,1.7161
5.4693,532,1.7161
5.4735,550,1.7742
5.4777,562,1.8129
5.4819,548,1.7677
5.4861,538,1.7355
5.4904,549,1.7710
5.4947,567,1.8290
5.4990,568,1.8323
5.5033,541,1.7452
5.5075,523,1.6871
5.5118,537,1.7323
5.5160,551,1.7774
5.5202,548,1.7677
5.5247,530,1.7097
5.5290,526,1.6968
5.5332,548,1.7677
5.5375,564,1.8194
5.5418,546,1.7613
5.5461,529,1.7065
5.5504,533,1.7194
5.5547,542,1.7484
5.5590,539,1.7387
5.5634,509,1.6419
5.5676,493,1.5903
5.5719,533,1.7194
5.5761,601,1.9387
5.5804,668,2.1548
5.5846,752,2.4258
5.5889,869,2.8032
5.5931,996,3.2129
5.5974,1002,3.2323
5.6016,1002,3.2323
5.6059,1001,3.2290
5.6101,996,3.2129
5.6143,901,2.9065
5.6185,759,2.4484
5.6227,611,1.9710
5.6269,501,1.6161
5.6311,466,1.5032
5.6353,473,1.5258
5.6395,474,1.5290
5.6437,461,1.4871
5.6479,457,1.4742
5.6521,480,1.5484
5.6563,495,1.5968
5.6605,485,1.5645
5.6647,468,1.5097
5.6689,464,1.4968
5.6731,487,1.5710
5.6773,502,1.6194
5.6816,491,1.5839
5.6858,472,1.5226
5.6900,476,1.5355
5.6942,498,1.6065
5.6984,509,1.6419
5.7026,489,1.5774
5.7069,475,1.5323
5.7112,491,1.5839
5.7154,510,1.6452
5.7197,513,1.6548
5.7240,497,1.6032
5.7283,489,1.5774
5.7326,512,1.6516
5.7370,529,1.7065
5.7413,518,1.6710
5.7455,506,1.6323
5.7498,511,1.6484
5.7540,532,1.7161
5.7583,546,1.7613
5.7625,528,1.7032
5.7668,515,1.6613
5.7710,532,1.7161
5.7752,554,1.7871
5.7795,558,1.8000
5.7838,544,1.7548
5.7880,538,1.7355
5.7923,561,1.8097
5.7966,584,1.8839
5.8008,577,1.8613
5.8051,562,1.8129
5.8094,564,1.8194
5.8136,592,1.9097
5.8179,609,1.9645
5.8221,594,1.9161
5.8263,580,1.8710
5.8305,593,1.9129
5.8347,613,1.9774
5.8390,625,2.0161
5.8432,606,1.9548
5.8474,589,1.9000
5.8515,602,1.9419
5.8557,615,1.9839
5.8600,607,1.9581
5.8641,579,1.8677
5.8683,560,1.8065
5.8725,568,1.8323
5.8768,571,1.8419
5.8810,550,1.7742
5.8853,521,1.6806
5.8894,512,1.6516
5.8936,522,1.6839
5.8978,529,1.7065
5.9020,507,1.6355
5.9062,492,1.5871
5.9104,496,1.6000
5.9146,510,1.6452
5.9188,517,1.6677
5.9230,497,1.6032
5.9272,483,1.5581
5.9314,499,1.6097
5.9356,518,1.6710
5.9399,518,1.6710
5.9441,501,1.6161
5.9484,493,1.5903
5.9527,515,1.6613
5.9569,533,1.7194
5.9612,522,1.6839
5.9655,505,1.6290
5.9698,508,1.6387
5.9741,527,1.7000
5.9783,539,1.7387
5.9826,522,1.6839
5.9869,508,1.6387
5.9913,521,1.6806
5.9956,537,1.7323
5.9998,536,1.7290
6.0041,516,1.6645
6.0083,504,1.6258
6.0126,522,1.6839
6.0168,536,1.7290
6.0211,522,1.6839
6.0254,503,1.6226
6.0296,499,1.6097
6.0339,519,1.6742
6.0382,528,1.7032
6.0425,510,1.6452
6.0468,493,1.5903
6.0510,503,1.6226
6.0552,518,1.6710
6.0594,520,1.6774
6.0636,501,1.6161
6.0678,491,1.5839
6.0720,508,1.6387
6.0762,523,1.6871
6.0804,517,1.6677
6.0846,499,1.6097
6.0888,491,1.5839
6.0930,512,1.6516
6.0972,528,1.7032
6.1014,514,1.6581
6.1056,494,1.5935
6.1097,494,1.5935
6.1139,514,1.6581
6.1181,527,1.7000
6.1223,509,1.6419
6.1265,494,1.5935
6.1307,502,1.6194
6.1349,519,1.6742
6.1391,526,1.6968
6.1432,507,1.6355
6.1474,492,1.5871
6.1516,507,1.6355
6.1558,524,1.6903
6.1600,522,1.6839
6.1641,503,1.6226
6.1684,494,1.5935
6.1726,512,1.6516
6.1768,527,1.7000
6.1811,518,1.6710
6.1854,497,1.6032
6.1897,498,1.6065
6.1940,527,1.7000
6.1984,545,1.7581
6.2027,525,1.6935
6.2070,505,1.6290
6.2112,517,1.6677
6.2155,538,1.7355
6.2197,546,1.7613
6.2240,528,1.7032
6.2282,513,1.6548
6.2324,530,1.7097
6.2366,539,1.7387
6.2408,525,1.6935
6.2450,504,1.6258
6.2492,497,1.6032
6.2534,517,1.6677
6.2576,531,1.7129
6.2618,516,1.6645
6.2660,501,1.6161
6.2702,503,1.6226
6.2744,523,1.6871
6.2787,533,1.7194
6.2829,508,1.6387
6.2871,485,1.5645
6.2914,489,1.5774
6.2956,495,1.5968
6.2999,493,1.5903
6.3042,488,1.5742
6.3085,524,1.6903
6.3128,616,1.9871
6.3171,726,2.3419
6.3214,841,2.7129
6.3256,961,3.1000
6.3299,998,3.2194
6.3342,1003,3.2355
6.3385,1003,3.2355
6.3428,998,3.2194
6.3471,916,2.9548
6.3514,740,2.3871
6.3557,590,1.9032
6.3599,495,1.5968
6.3642,440,1.4194
6.3684,424,1.3677
6.3727,449,1.4484
6.3770,469,1.5129
6.3815,459,1.4806
6.3859,438,1.4129
6.3902,439,1.4161
6.3946,459,1.4806
6.3991,471,1.5194
6.4035,450,1.4516
6.4079,435,1.4032
6.4123,456,1.4710
6.4168,473,1.5258
6.4212,464,1.4968
6.4255,447,1.4419
6.4299,447,1.4419
6.4342,473,1.5258
6.4386,487,1.5710
6.4430,471,1.5194
6.4473,458,1.4774
6.4517,474,1.5290
6.4560,495,1.5968
6.4604,495,1.5968
6.4647,477,1.5387
6.4691,473,1.5258
6.4734,498,1.6065
6.4778,513,1.6548
6.4822,500,1.6129
6.4865,486,1.5677
6.4908,495,1.5968
6.4951,518,1.6710
6.4995,527,1.7000
6.5038,510,1.6452
6.5082,502,1.6194
6.5125,524,1.6903
6.5168,543,1.7516
6.5212,538,1.7355
6.5255,522,1.6839
6.5299,527,1.7000
6.5342,555,1.7903
6.5386,574,1.8516
6.5429,559,1.8032
6.5473,546,1.7613
6.5516,562,1.8129
6.5560,585,1.8871
6.5603,587,1.8935
6.5647,570,1.8387
6.5691,562,1.8129
6.5734,584,1.8839
6.5777,598,1.9290
6.5820,581,1.8742
6.5863,560,1.8065
6.5907,560,1.8065
6.5950,570,1.8387
6.5993,571,1.8419
6.6037,539,1.7387
6.6080,516,1.6645
6.6124,522,1.6839
6.6167,529,1.7065
6.6211,515,1.6613
6.6254,484,1.5613
6.6298,470,1.5161
6.6342,484,1.5613
6.6386,492,1.5871
6.6430,470,1.5161
6.6474,455,1.4677
6.6517,465,1.5000
6.6560,481,1.5516
6.6604,482,1.5548
6.6647,464,1.4968
6.6691,456,1.4710
6.6735,479,1.5452
6.6778,495,1.5968
6.6821,481,1.5516
6.6865,465,1.5000
6.6908,474,1.5290
6.6951,493,1.5903
6.6995,502,1.6194
6.7038,486,1.5677
6.7082,473,1.5258
6.7125,491,1.5839
6.7169,508,1.6387
6.7212,503,1.6226
6.7255,486,1.5677
6.7299,480,1.5484
6.7342,500,1.6129
6.7385,513,1.6548
6.7429,494,1.5935
6.7473,479,1.5452
6.7516,488,1.5742
6.7560,502,1.6194
6.7603,500,1.6129
6.7647,481,1.5516
6.7691,469,1.5129
6.7734,489,1.5774
6.7778,502,1.6194
6.7821,487,1.5710
6.7865,467,1.5065
6.7909,470,1.5161
6.7952,488,1.5742
6.7996,496,1.6000
6.8040,475,1.5323
6.8084,463,1.4935
6.8127,479,1.5452
6.8171,496,1.6000
6.8214,487,1.5710
6.8257,469,1.5129
6.8301,467,1.5065
6.8344,486,1.5677
6.8387,498,1.6065
6.8430,480,1.5484
6.8473,463,1.4935
6.8516,475,1.5323
6.8559,494,1.5935
6.8602,496,1.6000
6.8646,473,1.5258
6.8689,461,1.4871
6.8732,482,1.5548
6.8775,498,1.6065
6.8818,487,1.5710
6.8861,470,1.5161
6.8904,470,1.5161
6.8947,492,1.5871
6.8991,505,1.6290
6.9034,487,1.5710
6.9077,468,1.5097
6.9120,482,1.5548
6.9163,497,1.6032
6.9207,495,1.5968
6.9249,480,1.5484
6.9292,477,1.5387
6.9335,501,1.6161
6.9379,519,1.6742
6.9422,503,1.6226
6.9465,483,1.5581
6.9508,488,1.5742
6.9551,516,1.6645
6.9594,534,1.7226
6.9637,514,1.6581
6.9680,495,1.5968
6.9723,502,1.6194
6.9766,510,1.6452
6.9809,500,1.6129
6.9851,479,1.5452
6.9895,470,1.5161
6.9938,492,1.5871
6.9981,508,1.6387
7.0024,493,1.5903
7.0067,476,1.5355
7.0110,482,1.5548
7.0153,506,1.6323
7.0196,512,1.6516
7.0239,483,1.5581
7.0282,457,1.4742
7.0324,464,1.4968
7.0367,474,1.5290
7.0409,477,1.5387
7.0452,497,1.6032
7.0494,554,1.7871
7.0537,660,2.1290
7.0579,790,2.5484
7.0622,914,2.9484
7.0664,999,3.2226
7.0706,1003,3.2355
7.0749,1003,3.2355
7.0791,1000,3.2258
7.0833,937,3.0226
7.0876,746,2.4065
7.0919,587,1.8935
7.0962,496,1.6000
7.1004,448,1.4452
7.1047,418,1.3484
7.1090,408,1.3161
7.1134,433,1.3968
7.1176,452,1.4581
7.1218,441,1.4226
7.1260,421,1.3581
7.1303,420,1.3548
7.1345,444,1.4323
7.1388,459,1.4806
7.1430,440,1.4194
7.1472,424,1.3677
7.1515,432,1.3935
7.1557,451,1.4548
7.1600,459,1.4806
7.1643,443,1.4290
7.1686,432,1.3935
7.1728,452,1.4581
7.1771,471,1.5194
7.1813,469,1.5129
7.1855,452,1.4581
7.1898,448,1.4452
7.1941,470,1.5161
7.1983,487,1.5710
7.2026,474,1.5290
7.2068,460,1.4839
7.2110,466,1.5032
7.2152,489,1.5774
7.2195,502,1.6194
7.2237,485,1.5645
7.2279,471,1.5194
7.2321,485,1.5645
7.2363,505,1.6290
7.2405,513,1.6548
7.2447,498,1.6065
7.2489,488,1.5742
7.2530,509,1.6419
7.2573,531,1.7129
7.2615,529,1.7065
7.2657,513,1.6548
7.2698,513,1.6548
7.2740,542,1.7484
7.2782,562,1.8129
7.2824,552,1.7806
7.2867,541,1.7452
7.2910,547,1.7645
7.2952,570,1.8387
7.2995,582,1.8774
7.3038,566,1.8258
7.3080,553,1.7839
7.3123,568,1.8323
7.3165,582,1.8774
7.3208,581,1.8742
7.3251,558,1.8000
7.3293,540,1.7419
7.3336,556,1.7935
7.3379,563,1.8161
7.3422,542,1.7484
7.3464,515,1.6613
7.3507,504,1.6258
7.3550,512,1.6516
7.3592,511,1.6484
7.3635,481,1.5516
7.3679,455,1.4677
7.3721,461,1.4871
7.3764,475,1.5323
7.3806,473,1.5258
7.3849,452,1.4581
7.3891,442,1.4258
7.3934,462,1.4903
7.3977,479,1.5452
7.4020,468,1.5097
7.4063,450,1.4516
7.4106,452,1.4581
7.4149,475,1.5323
7.4191,488,1.5742
7.4234,469,1.5129
7.4277,455,1.4677
7.4319,468,1.5097
7.4361,487,1.5710
7.4404,492,1.5871
7.4447,475,1.5323
7.4490,463,1.4935
7.4533,486,1.5677
7.4576,502,1.6194
7.4619,492,1.5871
7.4661,475,1.5323
7.4705,475,1.5323
7.4748,499,1.6097
7.4791,510,1.6452
7.4834,488,1.5742
7.4877,469,1.5129
7.4920,478,1.5419
7.4963,495,1.5968
7.5005,496,1.6000
7.5048,473,1.5258
7.5091,461,1.4871
7.5134,479,1.5452
7.5177,494,1.5935
7.5220,485,1.5645
7.5262,466,1.5032
7.5305,461,1.4871
7.5348,479,1.5452
7.5390,494,1.5935
7.5433,478,1.5419
7.5476,459,1.4806
7.5518,467,1.5065
7.5560,486,1.5677
7.5603,494,1.5935
7.5645,475,1.5323
7.5688,461,1.4871
7.5731,480,1.5484
7.5774,496,1.6000
7.5817,489,1.5774
7.5859,469,1.5129
7.5902,461,1.4871
7.5946,484,1.5613
7.5989,499,1.6097
7.6031,482,1.5548
7.6074,466,1.5032
7.6116,473,1.5258
7.6159,494,1.5935
7.6201,503,1.6226
7.6243,483,1.5581
7.6286,467,1.5065
7.6327,478,1.5419
7.6369,495,1.5968
7.6412,495,1.5968
7.6454,476,1.5355
7.6497,465,1.5000
7.6539,485,1.5645
7.6582,500,1.6129
7.6624,488,1.5742
7.6667,469,1.5129
7.6709,469,1.5129
7.6752,493,1.5903
7.6793,508,1.6387
7.6835,495,1.5968
7.6877,480,1.5484
7.6920,488,1.5742
7.6962,503,1.6226
7.7004,513,1.6548
7.7045,502,1.6194
7.7088,492,1.5871
7.7130,506,1.6323
7.7172,517,1.6677
7.7214,507,1.6355
7.7255,480,1.5484
7.7298,466,1.5032
7.7340,485,1.5645
7.7381,501,1.6161
7.7424,491,1.5839
7.7465,476,1.5355
7.7508,475,1.5323
7.7550,496,1.6000
7.7591,509,1.6419
7.7633,494,1.5935
7.7675,475,1.5323
7.7718,475,1.5323
7.7760,483,1.5581
7.7802,480,1.5484
7.7844,457,1.4742
7.7886,457,1.4742
7.7929,514,1.6581
7.7971,599,1.9323
7.8013,691,2.2290
7.8054,790,2.5484
7.8096,902,2.9097
7.8139,999,3.2226
7.8180,1001,3.2290
7.8222,1002,3.2323
7.8264,984,3.1742
7.8306,848,2.7355
7.8348,714,2.3032
7.8390,602,1.9419
7.8433,483,1.5581
7.8474,411,1.3258
7.8516,401,1.2935
7.8559,421,1.3581
7.8600,437,1.4097
7.8642,425,1.3710
7.8684,415,1.3387
7.8726,430,1.3871
7.8768,446,1.4387
7.8810,444,1.4323
7.8852,424,1.3677
7.8894,418,1.3484
7.8936,442,1.4258
7.8979,457,1.4742
7.9022,450,1.4516
7.9064,432,1.3935
7.9106,430,1.3871
7.9149,454,1.4645
7.9191,469,1.5129
7.9234,453,1.4613
7.9276,439,1.4161
7.9319,449,1.4484
7.9361,470,1.5161
7.9404,478,1.5419
7.9446,462,1.4903
7.9489,451,1.4548
7.9532,468,1.5097
7.9574,486,1.5677
7.9617,487,1.5710
7.9660,473,1.5258
7.9702,467,1.5065
7.9745,490,1.5806
7.9787,506,1.6323
7.9829,495,1.5968
7.9872,484,1.5613
7.9914,492,1.5871
7.9957,512,1.6516
8.0000,524,1.6903
8.0042,509,1.6419
8.0085,499,1.6097
8.0127,517,1.6677
8.0170,541,1.7452
8.0212,549,1.7710
8.0255,535,1.7258
8.0297,531,1.7129
8.0340,556,1.7935
8.0382,579,1.8677
8.0424,568,1.8323
8.0467,551,1.7774
8.0510,554,1.7871
8.0552,576,1.8581
8.0594,589,1.9000
8.0637,575,1.8548
8.0679,555,1.7903
8.0721,560,1.8065
8.0765,574,1.8516
8.0808,568,1.8323
8.0850,538,1.7355
8.0893,515,1.6613
8.0935,521,1.6806
8.0978,525,1.6935
8.1021,507,1.6355
8.1063,480,1.5484
8.1106,464,1.4968
8.1149,475,1.5323
8.1192,485,1.5645
8.1234,466,1.5032
8.1277,445,1.4355
8.1319,450,1.4516
8.1362,467,1.5065
8.1404,472,1.5226
8.1447,452,1.4581
8.1490,439,1.4161
8.1533,456,1.4710
8.1575,475,1.5323
8.1618,472,1.5226
8.1660,457,1.4742
8.1703,452,1.4581
8.1745,475,1.5323
8.1788,488,1.5742
8.1830,475,1.5323
8.1872,458,1.4774
8.1915,465,1.5000
8.1957,485,1.5645
8.2000,495,1.5968
8.2043,479,1.5452
8.2085,464,1.4968
8.2128,474,1.5290
8.2171,491,1.5839
8.2213,490,1.5806
8.2256,469,1.5129
8.2298,460,1.4839
8.2341,478,1.5419
8.2383,493,1.5903
8.2426,483,1.5581
8.2468,466,1.5032
8.2511,463,1.4935
8.2554,478,1.5419
8.2596,485,1.5645
8.2638,465,1.5000
8.2681,451,1.4548
8.2723,460,1.4839
8.2765,478,1.5419
8.2808,483,1.5581
8.2850,462,1.4903
8.2893,446,1.4387
8.2935,461,1.4871
8.2978,480,1.5484
8.3021,473,1.5258
8.3063,455,1.4677
8.3106,449,1.4484
8.3148,471,1.5194
8.3191,486,1.5677
8.3233,468,1.5097
8.3275,449,1.4484
8.3317,452,1.4581
8.3359,474,1.5290
8.3401,487,1.5710
8.3443,465,1.5000
8.3485,451,1.4548
8.3527,464,1.4968
8.3569,483,1.5581
8.3611,488,1.5742
8.3654,467,1.5065
8.3697,454,1.4645
8.3740,475,1.5323
8.3782,490,1.5806
8.3825,480,1.5484
8.3868,462,1.4903
8.3912,461,1.4871
8.3955,482,1.5548
8.3998,497,1.6032
8.4041,477,1.5387
8.4084,460,1.4839
8.4127,472,1.5226
8.4170,490,1.5806
8.4212,489,1.5774
8.4254,471,1.5194
8.4297,465,1.5000
8.4339,489,1.5774
8.4382,508,1.6387
8.4424,498,1.6065
8.4467,479,1.5452
8.4510,478,1.5419
8.4552,506,1.6323
8.4595,525,1.6935
8.4637,507,1.6355
8.4680,488,1.5742
8.4722,492,1.5871
8.4765,502,1.6194
8.4807,501,1.6161
8.4849,478,1.5419
8.4892,466,1.5032
8.4933,483,1.5581
8.4976,501,1.6161
8.5018,500,1.6129
8.5060,483,1.5581
8.5102,473,1.5258
8.5144,492,1.5871
8.5186,504,1.6258
8.5228,488,1.5742
8.5269,462,1.4903
8.5312,451,1.4548
8.5353,465,1.5000
8.5395,480,1.5484
8.5437,492,1.5871
8.5479,538,1.7355
8.5522,624,2.0129
8.5563,750,2.4194
8.5605,887,2.8613
8.5647,987,3.1839
8.5689,1002,3.2323
8.5731,1001,3.2290
8.5773,1001,3.2290
8.5815,966,3.1161
8.5857,795,2.5645
8.5899,628,2.0258
8.5942,526,1.6968
8.5984,464,1.4968
8.6026,428,1.3806
8.6068,406,1.3097
8.6110,405,1.3065
8.6152,432,1.3935
8.6193,448,1.4452
8.6235,433,1.3968
8.6277,417,1.3452
8.6319,420,1.3548
8.6362,439,1.4161
8.6405,449,1.4484
8.6447,429,1.3839
8.6490,416,1.3419
8.6533,434,1.4000
8.6576,453,1.4613
8.6618,454,1.4645
8.6661,436,1.4065
8.6704,430,1.3871
8.6747,453,1.4613
8.6791,470,1.5161
8.6834,458,1.4774
8.6876,443,1.4290
8.6919,448,1.4452
8.6962,471,1.5194
8.7004,485,1.5645
8.7047,470,1.5161
8.7090,460,1.4839
8.7132,476,1.5355
8.7175,498,1.6065
8.7218,499,1.6097
8.7261,481,1.5516
8.7304,476,1.5355
8.7347,501,1.6161
8.7390,518,1.6710
8.7433,510,1.6452
8.7475,497,1.6032
8.7517,502,1.6194
8.7560,529,1.7065
8.7602,543,1.7516
8.7645,527,1.7000
8.7688,518,1.6710
8.7730,536,1.7290
8.7772,558,1.8000
8.7814,563,1.8161
8.7856,549,1.7710
8.7898,542,1.7484
8.7940,563,1.8161
8.7982,584,1.8839
8.8025,581,1.8742
8.8067,565,1.8226
8.8109,561,1.8097
8.8151,583,1.8806
8.8193,595,1.9194
8.8235,579,1.8677
8.8276,559,1.8032
8.8318,555,1.7903
8.8360,566,1.8258
8.8402,568,1.8323
8.8444,539,1.7387
8.8486,512,1.6516
8.8528,511,1.6484
8.8570,520,1.6774
8.8613,515,1.6613
8.8655,487,1.5710
8.8698,467,1.5065
8.8740,478,1.5419
8.8783,491,1.5839
8.8826,482,1.5548
8.8869,459,1.4806
8.8911,453,1.4613
8.8954,474,1.5290
8.8997,491,1.5839
8.9039,477,1.5387
8.9081,460,1.4839
8.9123,465,1.5000
8.9164,484,1.5613
8.9207,496,1.6000
8.9249,479,1.5452
8.9291,468,1.5097
8.9332,485,1.5645
8.9374,502,1.6194
8.9416,505,1.6290
8.9458,488,1.5742
8.9500,478,1.5419
8.9542,499,1.6097
8.9584,515,1.6613
8.9626,507,1.6355
8.9668,488,1.5742
8.9710,483,1.5581
8.9752,505,1.6290
8.9794,517,1.6677
8.9837,499,1.6097
8.9879,482,1.5548
8.9921,486,1.5677
8.9963,504,1.6258
9.0005,512,1.6516
9.0048,491,1.5839
9.0090,477,1.5387
9.0132,489,1.5774
9.0174,505,1.6290
9.0216,502,1.6194
9.0258,484,1.5613
9.0300,471,1.5194
9.0342,491,1.5839
9.0384,507,1.6355
9.0426,498,1.6065
9.0468,479,1.5452
9.0510,472,1.5226
9.0552,492,1.5871
9.0594,508,1.6387
9.0636,496,1.6000
9.0678,475,1.5323
9.0720,479,1.5452
9.0762,498,1.6065
9.0804,509,1.6419
9.0846,489,1.5774
9.0888,473,1.5258
9.0930,486,1.5677
9.0973,504,1.6258
9.1015,504,1.6258
9.1058,484,1.5613
9.1100,471,1.5194
9.1142,491,1.5839
9.1184,511,1.6484
9.1227,503,1.6226
9.1269,485,1.5645
9.1311,479,1.5452
9.1353,497,1.6032
9.1395,513,1.6548
9.1437,499,1.6097
9.1479,480,1.5484
9.1522,487,1.5710
9.1565,509,1.6419
9.1609,518,1.6710
9.1652,495,1.5968
9.1696,482,1.5548
9.1739,497,1.6032
9.1781,517,1.6677
9.1824,513,1.6548
9.1866,501,1.6161
9.1908,499,1.6097
9.1953,519,1.6742
9.1996,528,1.7032
9.2039,516,1.6645
9.2081,501,1.6161
9.2123,513,1.6548
9.2165,539,1.7387
9.2207,547,1.7645
9.2249,521,1.6806
9.2292,498,1.6065
9.2333,502,1.6194
9.2375,514,1.6581
9.2417,516,1.6645
9.2459,498,1.6065
9.2501,488,1.5742
9.2543,507,1.6355
9.2585,521,1.6806
9.2627,515,1.6613
9.2670,497,1.6032
9.2713,489,1.5774
9.2755,504,1.6258
9.2799,510,1.6452
9.2842,483,1.5581
9.2886,459,1.4806
9.2930,466,1.5032
9.2974,504,1.6258
9.3018,562,1.8129
9.3061,618,1.9935
9.3105,705,2.2742
9.3149,867,2.7968
9.3193,1000,3.2258
9.3237,1003,3.2355
9.3281,1003,3.2355
9.3325,998,3.2194
9.3370,990,3.1935
9.3414,848,2.7355
9.3457,637,2.0548
9.3500,489,1.5774
9.3544,449,1.4484
9.3588,452,1.4581
9.3632,445,1.4355
9.3675,431,1.3903
9.3718,432,1.3935
9.3761,452,1.4581
9.3804,462,1.4903
9.3848,440,1.4194
9.3892,426,1.3742
9.3935,439,1.4161
9.3978,458,1.4774
9.4021,459,1.4806
9.4065,440,1.4194
9.4108,431,1.3903
9.4151,452,1.4581
9.4195,471,1.5194
9.4238,460,1.4839
9.4282,445,1.4355
9.4325,454,1.4645
9.4368,474,1.5290
9.4412,483,1.5581
9.4455,464,1.4968
9.4498,456,1.4710
9.4542,475,1.5323
9.4585,493,1.5903
9.4628,491,1.5839
9.4672,474,1.5290
9.4715,473,1.5258
9.4758,496,1.6000
9.4801,510,1.6452
9.4845,492,1.5871
9.4888,481,1.5516
9.4932,496,1.6000
9.4975,518,1.6710
9.5018,524,1.6903
9.5061,507,1.6355
9.5105,501,1.6161
9.5148,526,1.6968
9.5192,548,1.7677
9.5235,539,1.7387
9.5278,525,1.6935
9.5322,533,1.7194
9.5365,560,1.8065
9.5409,574,1.8516
9.5452,558,1.8000
9.5495,546,1.7613
9.5538,563,1.8161
9.5581,582,1.8774
9.5625,581,1.8742
9.5668,566,1.8258
9.5712,557,1.7968
9.5754,576,1.8581
9.5798,589,1.9000
9.5842,564,1.8194
9.5885,539,1.7387
9.5929,536,1.7290
9.5973,543,1.7516
9.6017,537,1.7323
9.6060,508,1.6387
9.6104,483,1.5581
9.6147,490,1.5806
9.6192,499,1.6097
9.6235,478,1.5419
9.6279,454,1.4645
9.6322,453,1.4613
9.6365,470,1.5161
9.6409,476,1.5355
9.6452,454,1.4645
9.6496,439,1.4161
9.6539,454,1.4645
9.6582,471,1.5194
9.6625,470,1.5161
9.6669,453,1.4613
9.6711,451,1.4548
9.6755,475,1.5323
9.6798,491,1.5839
9.6842,476,1.5355
9.6886,463,1.4935
9.6929,475,1.5323
9.6973,495,1.5968
9.7016,503,1.6226
9.7059,485,1.5645
9.7103,472,1.5226
9.7146,492,1.5871
9.7190,508,1.6387
9.7234,497,1.6032
9.7277,477,1.5387
9.7321,477,1.5387
9.7364,497,1.6032
9.7407,505,1.6290
9.7451,483,1.5581
9.7494,467,1.5065
9.7538,482,1.5548
9.7581,498,1.6065
9.7625,493,1.5903
9.7668,472,1.5226
9.7712,463,1.4935
9.7756,483,1.5581
9.7800,499,1.6097
9.7844,480,1.5484
9.7887,463,1.4935
9.7931,471,1.5194
9.7975,488,1.5742
9.8018,492,1.5871
9.8061,472,1.5226
9.8104,460,1.4839
9.8147,480,1.5484
9.8191,498,1.6065
9.8234,490,1.5806
9.8277,471,1.5194
9.8320,468,1.5097
9.8363,489,1.5774
9.8406,503,1.6226
9.8449,483,1.5581
9.8492,469,1.5129
9.8536,483,1.5581
9.8579,499,1.6097
9.8622,499,1.6097
9.8665,478,1.5419
9.8708,471,1.5194
9.8751,491,1.5839
9.8795,509,1.6419
9.8837,498,1.6065
9.8880,479,1.5452
9.8924,481,1.5516
9.8967,500,1.6129
9.9010,510,1.6452
9.9053,490,1.5806
9.9096,477,1.5387
9.9139,491,1.5839
9.9182,508,1.6387
9.9225,508,1.6387
9.9268,490,1.5806
9.9311,481,1.5516
9.9355,502,1.6194
9.9398,522,1.6839
9.9441,514,1.6581
9.9484,502,1.6194
9.9527,504,1.6258
9.9570,520,1.6774
9.9613,530,1.7097
9.9656,517,1.6677
9.9699,506,1.6323
9.9742,521,1.6806
9.9785,534,1.7226
9.9828,526,1.6968
9.9871,500,1.6129
9.9914,485,1.5645
9.9957,506,1.6323
10.0000,518,1.6710
10.0047,501,1.6161
10.0174,515,1.6613
10.0219,522,1.6839
10.0262,498,1.6065
10.0306,482,1.5548
10.0349,493,1.5903
10.0392,499,1.6097
10.0435,479,1.5452
10.0477,456,1.4710
10.0520,470,1.5161
10.0562,536,1.7290
10.0605,620,2.0000
10.0647,695,2.2419
10.0690,802,2.5871
10.0733,952,3.0710
10.0775,1001,3.2290
10.0817,1001,3.2290
10.0859,1002,3.2323
10.0901,999,3.2226
10.0943,936,3.0194
10.0985,768,2.4774
10.1027,600,1.9355
10.1069,479,1.5452
10.1111,431,1.3903
10.1154,445,1.4355
10.1196,464,1.4968
10.1238,455,1.4677
10.1280,441,1.4226
10.1321,441,1.4226
10.1363,458,1.4774
10.1405,469,1.5129
10.1447,451,1.4548
10.1490,435,1.4032
10.1532,444,1.4323
10.1574,463,1.4935
10.1617,472,1.5226
10.1660,452,1.4581
10.1703,440,1.4194
10.1745,459,1.4806
10.1788,475,1.5323
10.1831,473,1.5258
10.1873,455,1.4677
10.1915,449,1.4484
10.1957,471,1.5194
10.1999,491,1.5839
10.2041,482,1.5548
10.2083,465,1.5000
10.2126,469,1.5129
10.2168,492,1.5871
10.2211,507,1.6355
10.2253,492,1.5871
10.2296,480,1.5484
10.2339,494,1.5935
10.2382,514,1.6581
10.2425,519,1.6742
10.2467,502,1.6194
10.2510,494,1.5935
10.2552,518,1.6710
10.2594,536,1.7290
10.2637,534,1.7226
10.2680,523,1.6871
10.2722,524,1.6903
10.2765,548,1.7677
10.2807,565,1.8226
10.2850,557,1.7968
10.2892,545,1.7581
10.2935,558,1.8000
10.2977,582,1.8774
10.3020,592,1.9097
10.3063,574,1.8516
10.3105,563,1.8161
10.3147,582,1.8774
10.3190,599,1.9323
10.3232,594,1.9161
10.3275,576,1.8581
10.3317,567,1.8290
10.3359,585,1.8871
10.3401,596,1.9226
10.3443,577,1.8613
10.3485,549,1.7710
10.3527,540,1.7419
10.3569,552,1.7806
10.3611,553,1.7839
10.3654,522,1.6839
10.3696,494,1.5935
10.3738,492,1.5871
10.3781,504,1.6258
10.3823,503,1.6226
10.3866,478,1.5419
10.3909,463,1.4935
10.3952,477,1.5387
10.3995,491,1.5839
10.4037,481,1.5516
10.4080,463,1.4935
10.4123,460,1.4839
10.4165,481,1.5516
10.4208,495,1.5968
10.4251,480,1.5484
10.4293,469,1.5129
10.4336,479,1.5452
10.4378,498,1.6065
10.4420,508,1.6387
10.4462,489,1.5774
10.4504,475,1.5323
10.4545,491,1.5839
10.4587,508,1.6387
10.4629,507,1.6355
10.4671,488,1.5742
10.4714,480,1.5484
10.4756,500,1.6129
10.4799,514,1.6581
10.4841,503,1.6226
10.4884,485,1.5645
10.4927,486,1.5677
10.4970,507,1.6355
10.5013,514,1.6581
10.5055,490,1.5806
10.5099,474,1.5290
10.5142,486,1.5677
10.5184,503,1.6226
10.5227,505,1.6290
10.5269,485,1.5645
10.5312,474,1.5290
10.5354,491,1.5839
10.5397,507,1.6355
10.5438,498,1.6065
10.5480,479,1.5452
10.5522,475,1.5323
10.5565,496,1.6000
10.5607,508,1.6387
10.5649,493,1.5903
10.5691,475,1.5323
10.5733,482,1.5548
10.5775,502,1.6194
10.5817,512,1.6516
10.5858,490,1.5806
10.5901,474,1.5290
10.5943,486,1.5677
10.5984,503,1.6226
10.6026,506,1.6323
10.6068,485,1.5645
10.6110,472,1.5226
10.6153,493,1.5903
10.6195,510,1.6452
10.6237,503,1.6226
10.6279,485,1.5645
10.6322,478,1.5419
10.6365,499,1.6097
10.6408,512,1.6516
10.6450,498,1.6065
10.6494,480,1.5484
10.6536,486,1.5677
10.6580,504,1.6258
10.6623,514,1.6581
10.6665,493,1.5903
10.6709,479,1.5452
10.6752,500,1.6129
10.6795,519,1.6742
10.6838,510,1.6452
10.6881,485,1.5645
10.6924,480,1.5484
10.6968,505,1.6290
10.7011,526,1.6968
10.7054,513,1.6548
10.7097,497,1.6032
10.7140,504,1.6258
10.7183,520,1.6774
10.7226,525,1.6935
10.7269,512,1.6516
10.7312,507,1.6355
10.7355,524,1.6903
10.7397,535,1.7258
10.7440,520,1.6774
10.7482,495,1.5968
10.7525,488,1.5742
10.7567,505,1.6290
10.7610,519,1.6742
10.7652,504,1.6258
10.7695,488,1.5742
10.7737,496,1.6000
10.7780,515,1.6613
10.7822,522,1.6839
10.7864,502,1.6194
10.7907,487,1.5710
10.7950,496,1.6000
10.7993,500,1.6129
10.8035,488,1.5742
10.8077,467,1.5065
10.8120,478,1.5419
10.8163,548,1.7677
10.8205,636,2.0516
10.8248,726,2.3419
10.8291,833,2.6871
10.8333,958,3.0903
10.8376,1001,3.2290
10.8418,1001,3.2290
10.8460,999,3.2226
10.8503,948,3.0581
10.8545,814,2.6258
10.8588,689,2.2226
10.8631,571,1.8419
10.8674,463,1.4935
10.8717,413,1.3323
10.8759,426,1.3742
10.8802,449,1.4484
10.8844,442,1.4258
10.8887,430,1.3871
10.8929,434,1.4000
10.8972,456,1.4710
10.9014,467,1.5065
10.9057,449,1.4484
10.9100,434,1.4000
10.9142,446,1.4387
10.9185,466,1.5032
10.9227,472,1.5226
10.9270,452,1.4581
10.9312,440,1.4194
10.9355,462,1.4903
10.9398,480,1.5484
10.9441,473,1.5258
10.9484,460,1.4839
10.9526,460,1.4839
10.9568,482,1.5548
10.9610,495,1.5968
10.9652,483,1.5581
10.9694,470,1.5161
10.9736,477,1.5387
10.9778,498,1.6065
10.9821,511,1.6484
10.9863,494,1.5935
10.9905,485,1.5645
10.9946,499,1.6097
10.9991,517,1.6677
11.0034,521,1.6806
11.0076,508,1.6387
11.0119,503,1.6226
11.0160,526,1.6968
11.0202,544,1.7548
11.0245,538,1.7355
11.0286,527,1.7000
11.0328,527,1.7000
11.0370,552,1.7806
11.0412,570,1.8387
11.0455,560,1.8065
11.0497,552,1.7806
11.0539,565,1.8226
11.0581,587,1.8935
11.0623,599,1.9323
11.0664,583,1.8806
11.0706,571,1.8419
11.0749,586,1.8903
11.0791,605,1.9516
11.0833,607,1.9581
11.0875,588,1.8968
11.0917,575,1.8548
11.0959,591,1.9065
11.1000,603,1.9452
11.1043,587,1.8935
11.1085,560,1.8065
11.1127,544,1.7548
11.1169,553,1.7839
11.1211,554,1.7871
11.1253,529,1.7065
11.1295,502,1.6194
11.1337,495,1.5968
11.1379,506,1.6323
11.1421,512,1.6516
11.1463,487,1.5710
11.1505,467,1.5065
11.1547,477,1.5387
11.1589,494,1.5935
11.1630,499,1.6097
11.1673,478,1.5419
11.1715,468,1.5097
11.1757,488,1.5742
11.1798,506,1.6323
11.1840,502,1.6194
11.1882,484,1.5613
11.1924,475,1.5323
11.1967,497,1.6032
11.2009,512,1.6516
11.2052,501,1.6161
11.2094,486,1.5677
11.2136,488,1.5742
11.2178,508,1.6387
11.2220,520,1.6774
11.2263,502,1.6194
11.2304,486,1.5677
11.2346,494,1.5935
11.2388,512,1.6516
11.2430,518,1.6710
11.2472,500,1.6129
11.2514,487,1.5710
11.2556,501,1.6161
11.2598,515,1.6613
11.2640,509,1.6419
11.2682,488,1.5742
11.2724,480,1.5484
11.2766,500,1.6129
11.2808,514,1.6581
11.2850,502,1.6194
11.2892,483,1.5581
11.2934,485,1.5645
11.2976,505,1.6290
11.3018,516,1.6645
11.3060,497,1.6032
11.3102,479,1.5452
11.3144,484,1.5613
11.3186,500,1.6129
11.3228,507,1.6355
11.3270,488,1.5742
11.3313,475,1.5323
11.3354,491,1.5839
11.3396,511,1.6484
11.3438,508,1.6387
11.3480,485,1.5645
11.3522,475,1.5323
11.3564,496,1.6000
11.3606,512,1.6516
11.3648,505,1.6290
11.3690,486,1.5677
11.3732,485,1.5645
11.3775,506,1.6323
11.3816,516,1.6645
11.3858,498,1.6065
11.3901,483,1.5581
11.3942,492,1.5871
11.3984,510,1.6452
11.4027,518,1.6710
11.4069,497,1.6032
11.4112,483,1.5581
11.4155,501,1.6161
11.4198,519,1.6742
11.4242,513,1.6548
11.4285,495,1.5968
11.4328,489,1.5774
11.4371,511,1.6484
11.4413,524,1.6903
11.4455,509,1.6419
11.4498,490,1.5806
11.4540,493,1.5903
11.4584,518,1.6710
11.4628,534,1.7226
11.4671,520,1.6774
11.4715,505,1.6290
11.4757,517,1.6677
11.4800,534,1.7226
11.4842,535,1.7258
11.4885,524,1.6903
11.4928,521,1.6806
11.4971,538,1.7355
11.5014,545,1.7581
11.5057,523,1.6871
11.5099,498,1.6065
11.5142,500,1.6129
11.5184,518,1.6710
11.5226,526,1.6968
11.5268,506,1.6323
11.5311,491,1.5839
11.5354,507,1.6355
11.5396,523,1.6871
11.5439,523,1.6871
11.5481,501,1.6161
11.5523,486,1.5677
11.5566,499,1.6097
11.5608,505,1.6290
11.5650,486,1.5677
11.5692,470,1.5161
11.5733,493,1.5903
11.5776,570,1.8387
11.5818,664,2.1419
11.5860,753,2.4290
11.5902,863,2.7839
11.5944,991,3.1968
11.5986,999,3.2226
11.6028,1003,3.2355
11.6070,1000,3.2258
11.6112,986,3.1806
11.6154,857,2.7645
11.6197,702,2.2645
11.6239,563,1.8161
11.6282,457,1.4742
11.6325,418,1.3484
11.6367,436,1.4065
11.6410,453,1.4613
11.6452,448,1.4452
11.6495,437,1.4097
11.6537,436,1.4065
11.6580,453,1.4613
11.6623,465,1.5000
11.6665,447,1.4419
11.6708,433,1.3968
11.6750,446,1.4387
11.6792,461,1.4871
11.6835,465,1.5000
11.6877,448,1.4452
11.6919,436,1.4065
11.6962,457,1.4742
11.7004,474,1.5290
11.7045,469,1.5129
11.7087,455,1.4677
11.7129,451,1.4548
11.7171,475,1.5323
11.7213,491,1.5839
11.7255,481,1.5516
11.7298,466,1.5032
11.7340,470,1.5161
11.7382,492,1.5871
11.7424,505,1.6290
11.7466,489,1.5774
11.7508,476,1.5355
11.7550,494,1.5935
11.7593,514,1.6581
11.7635,518,1.6710
11.7677,500,1.6129
11.7719,491,1.5839
11.7761,513,1.6548
11.7803,531,1.7129
11.7845,532,1.7161
11.7886,518,1.6710
11.7928,516,1.6645
11.7971,540,1.7419
11.8013,561,1.8097
11.8056,553,1.7839
11.8098,540,1.7419
11.8140,545,1.7581
11.8183,569,1.8355
11.8225,588,1.8968
11.8267,573,1.8484
11.8309,560,1.8065
11.8351,570,1.8387
11.8394,588,1.8968
11.8436,593,1.9129
11.8478,577,1.8613
11.8520,563,1.8161
11.8562,577,1.8613
11.8604,590,1.9032
11.8647,578,1.8645
11.8690,549,1.7710
11.8733,534,1.7226
11.8776,543,1.7516
11.8819,547,1.7645
11.8862,517,1.6677
11.8906,490,1.5806
11.8949,490,1.5806
11.8991,500,1.6129
11.9034,502,1.6194
11.9078,477,1.5387
11.9121,458,1.4774
11.9164,474,1.5290
11.9208,490,1.5806
11.9250,481,1.5516
11.9293,464,1.4968
11.9336,463,1.4935
11.9380,485,1.5645
11.9423,498,1.6065
11.9465,479,1.5452
11.9508,465,1.5000
11.9550,477,1.5387
11.9593,499,1.6097
11.9635,504,1.6258
11.9678,484,1.5613
11.9720,472,1.5226
11.9763,492,1.5871
11.9805,510,1.6452
11.9848,502,1.6194
11.9892,481,1.5516
11.9935,477,1.5387
11.9978,497,1.6032
12.0021,511,1.6484
12.0065,491,1.5839
12.0109,473,1.5258
12.0153,483,1.5581
12.0197,502,1.6194
12.0241,501,1.6161
12.0284,479,1.5452
12.0328,465,1.5000
12.0372,486,1.5677
12.0416,501,1.6161
12.0460,486,1.5677
12.0505,466,1.5032
12.0550,473,1.5258
12.0594,493,1.5903
12.0637,496,1.6000
12.0681,472,1.5226
12.0724,463,1.4935
12.0768,484,1.5613
12.0811,499,1.6097
12.0855,489,1.5774
12.0898,472,1.5226
12.0941,474,1.5290
12.0985,492,1.5871
12.1028,502,1.6194
12.1072,480,1.5484
12.1115,464,1.4968
12.1158,479,1.5452
12.1202,496,1.6000
12.1245,494,1.5935
12.1288,474,1.5290
12.1332,468,1.5097
12.1375,491,1.5839
12.1419,504,1.6258
12.1462,489,1.5774
12.1505,472,1.5226
12.1549,479,1.5452
12.1592,498,1.6065
12.1635,505,1.6290
12.1679,485,1.5645
12.1722,473,1.5258
12.1765,490,1.5806
12.1808,505,1.6290
12.1852,496,1.6000
12.1895,478,1.5419
12.1939,478,1.5419
12.1982,499,1.6097
12.2026,511,1.6484
12.2069,493,1.5903
12.2112,474,1.5290
12.2156,488,1.5742
12.2199,514,1.6581
12.2243,521,1.6806
12.2286,502,1.6194
12.2329,489,1.5774
12.2372,507,1.6355
12.2416,525,1.6935
12.2459,521,1.6806
12.2502,509,1.6419
12.2546,512,1.6516
12.2589,526,1.6968
12.2633,527,1.7000
12.2676,498,1.6065
12.2719,477,1.5387
12.2762,494,1.5935
12.2805,515,1.6613
12.2849,512,1.6516
12.2892,493,1.5903
12.2936,486,1.5677
12.2979,508,1.6387
12.3023,523,1.6871
12.3066,503,1.6226
12.3109,481,1.5516
12.3153,481,1.5516
12.3197,487,1.5710
12.3241,480,1.5484
12.3285,464,1.4968
12.3328,482,1.5548
12.3371,568,1.8323
12.3415,670,2.1613
12.3459,774,2.4968
12.3503,901,2.9065
12.3546,999,3.2226
12.3590,1001,3.2290
12.3634,1001,3.2290
12.3677,1001,3.2290
12.3721,944,3.0452
12.3764,773,2.4935
12.3808,609,1.9645
12.3851,491,1.5839
12.3895,430,1.3871
12.3938,420,1.3548
12.3981,446,1.4387
12.4025,464,1.4968
12.4069,449,1.4484
12.4112,431,1.3903
12.4155,436,1.4065
12.4199,452,1.4581
12.4242,456,1.4710
12.4286,438,1.4129
12.4329,428,1.3806
12.4373,448,1.4452
12.4416,463,1.4935
12.4460,452,1.4581
12.4503,437,1.4097
12.4546,441,1.4226
12.4591,462,1.4903
12.4635,474,1.5290
12.4678,457,1.4742
12.4722,445,1.4355
12.4764,463,1.4935
12.4808,483,1.5581
12.4851,481,1.5516
12.4895,464,1.4968
12.4939,463,1.4935
12.4982,486,1.5677
12.5025,501,1.6161
12.5069,485,1.5645
12.5113,472,1.5226
12.5156,486,1.5677
12.5200,511,1.6484
12.5243,517,1.6677
12.5287,498,1.6065
12.5330,492,1.5871
12.5373,518,1.6710
12.5417,535,1.7258
12.5462,528,1.7032
12.5505,515,1.6613
12.5549,522,1.6839
12.5592,545,1.7581
12.5636,558,1.8000
12.5679,544,1.7548
12.5723,538,1.7355
12.5766,558,1.8000
12.5810,577,1.8613
12.5853,574,1.8516
12.5897,560,1.8065
12.5941,560,1.8065
12.5984,585,1.8871
12.6028,597,1.9258
12.6071,577,1.8613
12.6114,559,1.8032
12.6157,565,1.8226
12.6200,579,1.8677
12.6243,575,1.8548
12.6286,546,1.7613
12.6329,524,1.6903
12.6372,535,1.7258
12.6415,538,1.7355
12.6458,519,1.6742
12.6501,491,1.5839
12.6544,481,1.5516
12.6588,493,1.5903
12.6631,500,1.6129
12.6674,474,1.5290
12.6717,456,1.4710
12.6760,467,1.5065
12.6803,482,1.5548
12.6846,483,1.5581
12.6889,466,1.5032
12.6932,455,1.4677
12.6975,476,1.5355
12.7018,494,1.5935
12.7062,485,1.5645
12.7105,469,1.5129
12.7148,477,1.5387
12.7191,501,1.6161
12.7234,513,1.6548
12.7277,491,1.5839
12.7320,477,1.5387
12.7363,491,1.5839
12.7406,507,1.6355
12.7449,508,1.6387
12.7492,489,1.5774
12.7538,480,1.5484
12.7581,503,1.6226
12.7624,516,1.6645
12.7667,502,1.6194
12.7711,485,1.5645
12.7754,488,1.5742
12.7797,505,1.6290
12.7840,512,1.6516
12.7883,490,1.5806
12.7926,476,1.5355
12.7969,494,1.5935
12.8013,511,1.6484
12.8056,501,1.6161
12.8099,482,1.5548
12.8142,479,1.5452
12.8185,498,1.6065
12.8228,509,1.6419
12.8271,490,1.5806
12.8314,474,1.5290
12.8357,483,1.5581
12.8400,503,1.6226
12.8443,505,1.6290
12.8486,481,1.5516
12.8530,468,1.5097
12.8573,488,1.5742
12.8616,507,1.6355
12.8659,499,1.6097
12.8701,479,1.5452
12.8744,476,1.5355
12.8786,498,1.6065
12.8829,509,1.6419
12.8871,495,1.5968
12.8914,478,1.5419
12.8956,482,1.5548
12.8999,501,1.6161
12.9041,509,1.6419
12.9084,489,1.5774
12.9126,477,1.5387
12.9168,493,1.5903
12.9211,510,1.6452
12.9253,507,1.6355
12.9296,489,1.5774
12.9339,481,1.5516
12.9382,502,1.6194
12.9424,513,1.6548
12.9466,498,1.6065
12.9509,481,1.5516
12.9552,485,1.5645
12.9595,504,1.6258
12.9638,514,1.6581
12.9680,493,1.5903
12.9723,481,1.5516
12.9765,503,1.6226
12.9808,527,1.7000
12.9851,528,1.7032
12.9893,507,1.6355
12.9936,492,1.5871
12.9978,514,1.6581
13.0021,536,1.7290
13.0064,534,1.7226
13.0106,516,1.6645
13.0149,512,1.6516
13.0192,522,1.6839
13.0234,525,1.6935
13.0277,501,1.6161
13.0319,485,1.5645
13.0361,496,1.6000
13.0404,513,1.6548
13.0446,518,1.6710
13.0488,499,1.6097
13.0530,487,1.5710
13.0572,505,1.6290
13.0614,520,1.6774
13.0656,513,1.6548
13.0697,492,1.5871
13.0739,475,1.5323
13.0782,484,1.5613
13.0824,490,1.5806
13.0866,481,1.5516
13.0908,500,1.6129
13.0950,570,1.8387
13.0993,676,2.1806
13.1035,802,2.5871
13.1077,918,2.9613
13.1119,999,3.2226
13.1161,1002,3.2323
13.1203,1003,3.2355
13.1246,998,3.2194
13.1288,949,3.0613
13.1330,770,2.4839
13.1372,620,2.0000
13.1414,518,1.6710
13.1456,454,1.4645
13.1498,420,1.3548
13.1540,414,1.3355
13.1582,441,1.4226
13.1625,464,1.4968
13.1667,451,1.4548
13.1708,432,1.3935
13.1750,434,1.4000
13.1793,453,1.4613
13.1835,464,1.4968
13.1876,447,1.4419
13.1918,433,1.3968
13.1961,443,1.4290
13.2003,461,1.4871
13.2045,467,1.5065
13.2087,448,1.4452
13.2129,438,1.4129
13.2171,456,1.4710
13.2213,474,1.5290
13.2256,472,1.5226
13.2298,458,1.4774
13.2339,451,1.4548
13.2381,471,1.5194
13.2424,486,1.5677
13.2466,478,1.5419
13.2508,464,1.4968
13.2549,468,1.5097
13.2591,493,1.5903
13.2634,507,1.6355
13.2676,491,1.5839
13.2718,475,1.5323
13.2760,486,1.5677
13.2802,510,1.6452
13.2844,521,1.6806
13.2886,502,1.6194
13.2928,495,1.5968
13.2971,514,1.6581
13.3013,533,1.7194
13.3055,536,1.7290
13.3097,525,1.6935
13.3138,519,1.6742
13.3180,543,1.7516
13.3222,563,1.8161
13.3264,557,1.7968
13.3306,544,1.7548
13.3348,552,1.7806
13.3390,577,1.8613
13.3432,588,1.8968
13.3474,574,1.8516
13.3516,556,1.7935
13.3558,566,1.8258
13.3600,584,1.8839
13.3643,594,1.9161
13.3685,573,1.8484
13.3727,556,1.7935
13.3769,564,1.8194
13.3811,575,1.8548
13.3853,563,1.8161
13.3895,531,1.7129
13.3937,509,1.6419
13.3980,519,1.6742
13.4022,524,1.6903
13.4065,503,1.6226
13.4107,476,1.5355
13.4150,466,1.5032
13.4193,478,1.5419
13.4236,487,1.5710
13.4279,463,1.4935
13.4323,446,1.4387
13.4366,458,1.4774
13.4409,475,1.5323
13.4452,477,1.5387
13.4494,460,1.4839
13.4537,449,1.4484
13.4579,467,1.5065
13.4622,485,1.5645
13.4664,478,1.5419
13.4706,463,1.4935
13.4747,461,1.4871
13.4790,484,1.5613
13.4831,497,1.6032
13.4874,480,1.5484
13.4916,466,1.5032
13.4958,473,1.5258
13.5000,491,1.5839
13.5042,499,1.6097
13.5084,477,1.5387
13.5126,462,1.4903
13.5168,475,1.5323
13.5210,489,1.5774
13.5252,490,1.5806
13.5295,468,1.5097
13.5338,455,1.4677
13.5381,477,1.5387
13.5424,493,1.5903
13.5467,481,1.5516
13.5509,461,1.4871
13.5552,457,1.4742
13.5595,475,1.5323
13.5638,488,1.5742
13.5681,467,1.5065
13.5724,452,1.4581
13.5767,466,1.5032
13.5812,481,1.5516
13.5854,477,1.5387
13.5898,459,1.4806
13.5941,451,1.4548
13.5984,472,1.5226
13.6027,485,1.5645
13.6070,469,1.5129
13.6113,451,1.4548
13.6156,455,1.4677
13.6198,475,1.5323
13.6241,485,1.5645
13.6284,468,1.5097
13.6327,454,1.4645
13.6369,467,1.5065
13.6412,483,1.5581
13.6455,480,1.5484
13.6498,461,1.4871
13.6541,451,1.4548
13.6583,469,1.5129
13.6626,487,1.5710
13.6668,475,1.5323
13.6711,457,1.4742
13.6754,459,1.4806
13.6796,480,1.5484
13.6839,490,1.5806
13.6881,470,1.5161
13.6924,457,1.4742
13.6966,469,1.5129
13.7008,487,1.5710
13.7051,490,1.5806
13.7093,470,1.5161
13.7136,455,1.4677
13.7180,472,1.5226
13.7222,488,1.5742
13.7265,483,1.5581
13.7307,471,1.5194
13.7350,471,1.5194
13.7392,491,1.5839
13.7435,503,1.6226
13.7477,485,1.5645
13.7520,470,1.5161
13.7563,488,1.5742
13.7605,511,1.6484
13.7648,516,1.6645
13.7690,493,1.5903
13.7733,472,1.5226
13.7775,481,1.5516
13.7818,495,1.5968
13.7860,487,1.5710
13.7904,465,1.5000
13.7946,461,1.4871
13.7989,485,1.5645
13.8031,499,1.6097
13.8074,485,1.5645
13.8117,468,1.5097
13.8160,472,1.5226
13.8202,489,1.5774
13.8245,490,1.5806
13.8288,462,1.4903
13.8331,442,1.4258
13.8373,460,1.4839
13.8416,502,1.6194
13.8458,553,1.7839
13.8501,611,1.9710
13.8544,713,2.3000
13.8586,859,2.7710
13.8629,979,3.1581
13.8672,996,3.2129
13.8714,996,3.2129
13.8757,981,3.1645
13.8800,876,2.8258
13.8842,751,2.4226
13.8884,620,2.0000
13.8927,510,1.6452
13.8970,444,1.4323
13.9013,422,1.3613
13.9056,416,1.3419
13.9098,400,1.2903
13.9140,395,1.2742
13.9183,422,1.3613
13.9225,443,1.4290
13.9268,433,1.3968
13.9311,418,1.3484
13.9353,417,1.3452
13.9395,437,1.4097
13.9437,453,1.4613
13.9479,438,1.4129
13.9521,424,1.3677
13.9563,432,1.3935
13.9605,450,1.4516
13.9647,461,1.4871
13.9688,443,1.4290
13.9730,429,1.3839
13.9772,446,1.4387
13.9815,466,1.5032
13.9857,468,1.5097
13.9899,452,1.4581
13.9942,444,1.4323
13.9984,468,1.5097
14.0026,486,1.5677
14.0068,478,1.5419
14.0110,465,1.5000
14.0152,464,1.4968
14.0194,489,1.5774
14.0237,504,1.6258
14.0279,489,1.5774
14.0321,475,1.5323
14.0363,486,1.5677
14.0405,507,1.6355
14.0447,516,1.6645
14.0489,500,1.6129
14.0531,492,1.5871
14.0573,514,1.6581
14.0615,534,1.7226
14.0657,540,1.7419
14.0699,527,1.7000
14.0740,521,1.6806
14.0783,546,1.7613
14.0825,566,1.8258
14.0867,562,1.8129
14.0908,547,1.7645
14.0950,546,1.7613
14.0992,569,1.8355
14.1034,583,1.8806
14.1076,572,1.8452
14.1118,557,1.7968
14.1160,561,1.8097
14.1202,578,1.8645
14.1244,587,1.8935
14.1286,560,1.8065
14.1328,540,1.7419
14.1370,545,1.7581
14.1412,554,1.7871
14.1454,544,1.7548
14.1496,512,1.6516
14.1538,489,1.5774
14.1580,496,1.6000
14.1622,504,1.6258
14.1664,493,1.5903
14.1706,468,1.5097
14.1749,456,1.4710
14.1791,474,1.5290
14.1833,486,1.5677
14.1875,471,1.5194
14.1917,453,1.4613
14.1959,456,1.4710
14.2001,478,1.5419
14.2044,491,1.5839
14.2086,473,1.5258
14.2128,461,1.4871
14.2170,472,1.5226
14.2212,489,1.5774
14.2254,495,1.5968
14.2296,478,1.5419
14.2338,468,1.5097
14.2380,487,1.5710
14.2422,503,1.6226
14.2464,499,1.6097
14.2507,480,1.5484
14.2549,475,1.5323
14.2591,495,1.5968
14.2633,509,1.6419
14.2675,495,1.5968
14.2717,477,1.5387
14.2758,476,1.5355
14.2800,494,1.5935
14.2842,508,1.6387
14.2884,489,1.5774
14.2926,474,1.5290
14.2968,480,1.5484
14.3010,497,1.6032
14.3053,500,1.6129
14.3095,480,1.5484
14.3137,467,1.5065
14.3179,484,1.5613
14.3220,500,1.6129
14.3263,496,1.6000
14.3305,475,1.5323
14.3347,464,1.4968
14.3389,486,1.5677
14.3431,498,1.6065
14.3473,486,1.5677
14.3515,466,1.5032
14.3557,467,1.5065
14.3599,489,1.5774
14.3641,502,1.6194
14.3684,486,1.5677
14.3725,467,1.5065
14.3767,474,1.5290
14.3810,494,1.5935
14.3853,501,1.6161
14.3895,481,1.5516
14.3937,467,1.5065
14.3979,484,1.5613
14.4021,500,1.6129
14.4063,497,1.6032
14.4105,480,1.5484
14.4147,471,1.5194
14.4189,494,1.5935
14.4231,510,1.6452
14.4274,499,1.6097
14.4316,479,1.5452
14.4359,479,1.5452
14.4402,502,1.6194
14.4446,514,1.6581
14.4489,496,1.6000
14.4532,480,1.5484
14.4575,495,1.5968
14.4619,512,1.6516
14.4663,508,1.6387
14.4706,489,1.5774
14.4749,481,1.5516
14.4791,506,1.6323
14.4834,525,1.6935
14.4876,517,1.6677
14.4921,498,1.6065
14.4964,499,1.6097
14.5006,518,1.6710
14.5049,535,1.7258
14.5092,522,1.6839
14.5135,509,1.6419
14.5177,519,1.6742
14.5220,527,1.7000
14.5262,517,1.6677
14.5305,490,1.5806
14.5348,480,1.5484
14.5390,501,1.6161
14.5432,518,1.6710
14.5474,508,1.6387
14.5516,490,1.5806
14.5558,491,1.5839
14.5600,511,1.6484
14.5642,521,1.6806
14.5683,502,1.6194
14.5725,480,1.5484
14.5767,478,1.5419
14.5809,489,1.5774
14.5851,490,1.5806
14.5893,472,1.5226
14.5935,485,1.5645
14.5977,561,1.8097
14.6019,658,2.1226
14.6061,765,2.4677
14.6104,879,2.8355
14.6146,994,3.2065
14.6188,1003,3.2355
14.6230,1003,3.2355
14.6272,1003,3.2355
14.6315,991,3.1968
14.6357,854,2.7548
14.6399,691,2.2290
14.6440,560,1.8065
14.6482,463,1.4935
14.6524,421,1.3581
14.6566,428,1.3806
14.6609,451,1.4548
14.6651,464,1.4968
14.6695,448,1.4452
14.6738,433,1.3968
14.6781,451,1.4548
14.6824,466,1.5032
14.6867,460,1.4839
14.6909,441,1.4226
14.6952,436,1.4065
14.6994,458,1.4774
14.7037,472,1.5226
14.7079,459,1.4806
14.7122,442,1.4258
14.7163,447,1.4419
14.7206,467,1.5065
14.7248,479,1.5452
14.7290,464,1.4968
14.7332,454,1.4645
14.7375,467,1.5065
14.7417,488,1.5742
14.7459,493,1.5903
14.7501,473,1.5258
14.7543,463,1.4935
14.7585,484,1.5613
14.7628,503,1.6226
14.7670,498,1.6065
14.7712,483,1.5581
14.7755,481,1.5516
14.7798,505,1.6290
14.7841,522,1.6839
14.7885,508,1.6387
14.7928,495,1.5968
14.7971,508,1.6387
14.8013,528,1.7032
14.8056,541,1.7452
14.8098,525,1.6935
14.8141,514,1.6581
14.8183,535,1.7258
14.8226,555,1.7903
14.8269,557,1.7968
14.8311,545,1.7581
14.8353,541,1.7452
14.8395,568,1.8323
14.8438,587,1.8935
14.8480,580,1.8710
14.8522,563,1.8161
14.8563,568,1.8323
14.8606,586,1.8903
14.8648,599,1.9323
14.8690,582,1.8774
14.8732,563,1.8161
14.8774,570,1.8387
14.8816,582,1.8774
14.8858,575,1.8548
14.8900,547,1.7645
14.8942,524,1.6903
14.8984,531,1.7129
14.9026,536,1.7290
14.9068,521,1.6806
14.9111,490,1.5806
14.9154,473,1.5258
14.9196,489,1.5774
14.9238,498,1.6065
14.9280,480,1.5484
14.9323,460,1.4839
14.9365,460,1.4839
14.9408,479,1.5452
14.9450,492,1.5871
14.9493,471,1.5194
14.9535,454,1.4645
14.9578,469,1.5129
14.9620,488,1.5742
14.9663,492,1.5871
14.9706,476,1.5355
14.9749,466,1.5032
14.9791,492,1.5871
14.9834,510,1.6452
14.9876,500,1.6129
14.9919,482,1.5548
14.9961,482,1.5548
15.0004,504,1.6258
15.0047,517,1.6677
15.0094,497,1.6032
15.0220,512,1.6516
15.0264,512,1.6516
15.0307,494,1.5935
15.0350,483,1.5581
15.0393,500,1.6129
15.0435,512,1.6516
15.0478,501,1.6161
15.0520,482,1.5548
15.0563,482,1.5548
15.0606,503,1.6226
15.0649,513,1.6548
15.0691,491,1.5839
15.0733,476,1.5355
15.0776,486,1.5677
15.0818,504,1.6258
15.0860,507,1.6355
15.0903,487,1.5710
15.0945,475,1.5323
15.0988,491,1.5839
15.1030,505,1.6290
15.1073,497,1.6032
15.1116,479,1.5452
15.1158,474,1.5290
15.1201,496,1.6000
15.1243,511,1.6484
15.1285,494,1.5935
15.1327,477,1.5387
15.1369,480,1.5484
15.1411,498,1.6065
15.1453,510,1.6452
15.1496,491,1.5839
15.1538,477,1.5387
15.1580,489,1.5774
15.1622,507,1.6355
15.1664,510,1.6452
15.1706,490,1.5806
15.1749,478,1.5419
15.1791,499,1.6097
15.1832,515,1.6613
15.1874,508,1.6387
15.1917,490,1.5806
15.1959,486,1.5677
15.2002,507,1.6355
15.2044,518,1.6710
15.2087,502,1.6194
15.2129,484,1.5613
15.2172,490,1.5806
15.2215,508,1.6387
15.2257,517,1.6677
15.2300,501,1.6161
15.2343,494,1.5935
15.2386,516,1.6645
15.2429,533,1.7194
15.2472,525,1.6935
15.2514,504,1.6258
15.2557,503,1.6226
15.2600,533,1.7194
15.2643,549,1.7710
15.2686,530,1.7097
15.2728,508,1.6387
15.2771,507,1.6355
15.2813,517,1.6677
15.2855,523,1.6871
15.2897,501,1.6161
15.2940,485,1.5645
15.2982,500,1.6129
15.3025,521,1.6806
15.3067,520,1.6774
15.3109,504,1.6258
15.3152,496,1.6000
15.3194,513,1.6548
15.3236,520,1.6774
15.3278,502,1.6194
15.3320,474,1.5290
15.3362,462,1.4903
15.3404,479,1.5452
15.3446,515,1.6613
15.3488,553,1.7839
15.3530,615,1.9839
15.3572,725,2.3387
15.3614,878,2.8323
15.3657,997,3.2161
15.3699,1001,3.2290
15.3742,1003,3.2355
15.3784,1001,3.2290
15.3827,995,3.2097
15.3870,883,2.8484
15.3913,678,2.1871
15.3956,523,1.6871
15.3999,467,1.5065
15.4043,459,1.4806
15.4087,443,1.4290
15.4131,431,1.3903
15.4174,442,1.4258
15.4218,462,1.4903
15.4262,465,1.5000
15.4306,441,1.4226
15.4350,431,1.3903
15.4394,451,1.4548
15.4438,466,1.5032
15.4482,455,1.4677
15.4525,439,1.4161
15.4569,443,1.4290
15.4613,464,1.4968
15.4657,476,1.5355
15.4701,456,1.4710
15.4745,445,1.4355
15.4789,465,1.5000
15.4832,486,1.5677
15.4876,482,1.5548
15.4920,466,1.5032
15.4963,464,1.4968
15.5007,487,1.5710
15.5050,503,1.6226
15.5094,487,1.5710
15.5137,476,1.5355
15.5181,490,1.5806
15.5225,508,1.6387
15.5268,510,1.6452
15.5312,493,1.5903
15.5355,487,1.5710
15.5398,513,1.6548
15.5441,532,1.7161
15.5485,522,1.6839
15.5528,509,1.6419
15.5572,516,1.6645
15.5614,539,1.7387
15.5657,552,1.7806
15.5701,539,1.7387
15.5744,532,1.7161
15.5788,554,1.7871
15.5831,575,1.8548
15.5875,572,1.8452
15.5918,559,1.8032
15.5962,557,1.7968
15.6005,583,1.8806
15.6049,598,1.9290
15.6092,585,1.8871
15.6136,566,1.8258
15.6179,578,1.8645
15.6222,594,1.9161
15.6266,595,1.9194
15.6309,569,1.8355
15.6352,547,1.7645
15.6395,557,1.7968
15.6439,566,1.8258
15.6482,545,1.7581
15.6525,515,1.6613
15.6569,505,1.6290
15.6612,517,1.6677
15.6656,518,1.6710
15.6700,487,1.5710
15.6743,467,1.5065
15.6787,479,1.5452
15.6831,493,1.5903
15.6874,484,1.5613
15.6917,460,1.4839
15.6961,454,1.4645
15.7004,479,1.5452
15.7047,495,1.5968
15.7091,477,1.5387
15.7134,463,1.4935
15.7177,475,1.5323
15.7220,496,1.6000
15.7264,503,1.6226
15.7307,484,1.5613
15.7350,472,1.5226
15.7393,495,1.5968
15.7437,512,1.6516
15.7480,503,1.6226
15.7524,487,1.5710
15.7567,488,1.5742
15.7611,510,1.6452
15.7654,523,1.6871
15.7698,505,1.6290
15.7742,491,1.5839
15.7786,504,1.6258
15.7829,518,1.6710
15.7872,513,1.6548
15.7916,492,1.5871
15.7959,481,1.5516
15.8003,500,1.6129
15.8046,517,1.6677
15.8089,497,1.6032
15.8132,477,1.5387
15.8176,484,1.5613
15.8220,505,1.6290
15.8264,509,1.6419
15.8307,484,1.5613
15.8350,468,1.5097
15.8394,488,1.5742
15.8437,503,1.6226
15.8481,492,1.5871
15.8525,474,1.5290
15.8568,474,1.5290
15.8612,494,1.5935
15.8655,506,1.6323
15.8698,485,1.5645
15.8742,469,1.5129
15.8786,480,1.5484
15.8829,499,1.6097
15.8873,498,1.6065
15.8916,480,1.5484
15.8960,471,1.5194
15.9003,492,1.5871
15.9047,507,1.6355
15.9091,492,1.5871
15.9135,472,1.5226
15.9178,480,1.5484
15.9222,500,1.6129
15.9265,509,1.6419
15.9308,488,1.5742
15.9352,475,1.5323
15.9395,492,1.5871
15.9439,510,1.6452
15.9482,498,1.6065
15.9525,480,1.5484
15.9569,480,1.5484
15.9612,504,1.6258
15.9655,516,1.6645
15.9698,492,1.5871
15.9742,480,1.5484
15.9785,493,1.5903
15.9829,515,1.6613
15.9872,519,1.6742
15.9916,500,1.6129
15.9960,493,1.5903
16.0004,511,1.6484
16.0047,525,1.6935
16.0091,516,1.6645
16.0135,507,1.6355
16.0178,517,1.6677
16.0222,534,1.7226
16.0265,532,1.7161
16.0309,504,1.6258
16.0352,483,1.5581
16.0396,496,1.6000
16.0440,512,1.6516
16.0484,503,1.6226
16.0528,486,1.5677
16.0571,488,1.5742
16.0615,510,1.6452
16.0658,521,1.6806
16.0702,500,1.6129
16.0746,485,1.5645
16.0790,492,1.5871
16.0833,500,1.6129
16.0876,486,1.5677
16.0919,453,1.4613
16.0963,455,1.4677
16.1006,515,1.6613
16.1049,600,1.9355
16.1092,671,2.1645
16.1135,772,2.4903
16.1178,916,2.9548
16.1221,1000,3.2258
16.1264,1003,3.2355
16.1307,1003,3.2355
16.1350,997,3.2161
16.1394,907,2.9258
16.1437,741,2.3903
16.1480,584,1.8839
16.1524,464,1.4968
16.1567,416,1.3419
16.1610,431,1.3903
16.1653,448,1.4452
16.1696,436,1.4065
16.1739,424,1.3677
16.1782,435,1.4032
16.1826,453,1.4613
16.1869,459,1.4806
16.1912,438,1.4129
16.1955,426,1.3742
16.1998,445,1.4355
16.2041,463,1.4935
16.2084,456,1.4710
16.2127,438,1.4129
16.2170,440,1.4194
16.2213,464,1.4968
16.2257,478,1.5419
16.2300,459,1.4806
16.2343,444,1.4323
16.2386,457,1.4742
16.2429,478,1.5419
16.2472,484,1.5613
16.2515,462,1.4903
16.2559,454,1.4645
16.2604,480,1.5484
16.2647,499,1.6097
16.2691,488,1.5742
16.2734,469,1.5129
16.2776,478,1.5419
16.2819,502,1.6194
16.2862,518,1.6710
16.2906,500,1.6129
16.2949,489,1.5774
16.2993,507,1.6355
16.3036,529,1.7065
16.3079,530,1.7097
16.3122,517,1.6677
16.3165,513,1.6548
16.3208,537,1.7323
16.3251,556,1.7935
16.3294,548,1.7677
16.3337,538,1.7355
16.3380,550,1.7742
16.3423,576,1.8581
16.3467,585,1.8871
16.3510,569,1.8355
16.3553,560,1.8065
16.3596,580,1.8710
16.3639,597,1.9258
16.3682,593,1.9129
16.3725,576,1.8581
16.3768,568,1.8323
16.3811,584,1.8839
16.3854,591,1.9065
16.3896,565,1.8226
16.3938,538,1.7355
16.3981,535,1.7258
16.4023,540,1.7419
16.4065,535,1.7258
16.4108,504,1.6258
16.4150,482,1.5548
16.4193,490,1.5806
16.4235,499,1.6097
16.4277,489,1.5774
16.4319,467,1.5065
16.4361,452,1.4581
16.4403,471,1.5194
16.4445,485,1.5645
16.4487,474,1.5290
16.4529,456,1.4710
16.4571,451,1.4548
16.4612,473,1.5258
16.4654,490,1.5806
16.4696,472,1.5226
16.4738,457,1.4742
16.4781,466,1.5032
16.4822,487,1.5710
16.4865,499,1.6097
16.4908,480,1.5484
16.4950,466,1.5032
16.4993,483,1.5581
16.5036,502,1.6194
16.5078,501,1.6161
16.5121,486,1.5677
16.5164,475,1.5323
16.5207,495,1.5968
16.5249,508,1.6387
16.5292,497,1.6032
16.5335,479,1.5452
16.5378,482,1.5548
16.5420,499,1.6097
16.5463,507,1.6355
16.5506,485,1.5645
16.5549,469,1.5129
16.5591,484,1.5613
16.5635,499,1.6097
16.5677,497,1.6032
16.5720,478,1.5419
16.5762,468,1.5097
16.5805,488,1.5742
16.5846,501,1.6161
16.5888,488,1.5742
16.5930,469,1.5129
16.5972,466,1.5032
16.6015,486,1.5677
16.6058,500,1.6129
16.6100,481,1.5516
16.6143,463,1.4935
16.6185,473,1.5258
16.6227,493,1.5903
16.6269,503,1.6226
16.6311,478,1.5419
16.6354,462,1.4903
16.6396,479,1.5452
16.6439,498,1.6065
16.6481,490,1.5806
16.6524,472,1.5226
16.6567,467,1.5065
16.6609,490,1.5806
16.6651,505,1.6290
16.6693,488,1.5742
16.6736,471,1.5194
16.6779,476,1.5355
16.6822,496,1.6000
16.6864,502,1.6194
16.6906,480,1.5484
16.6949,466,1.5032
16.6991,481,1.5516
16.7034,497,1.6032
16.7076,499,1.6097
16.7117,478,1.5419
16.7160,468,1.5097
16.7201,490,1.5806
16.7243,504,1.6258
16.7285,499,1.6097
16.7327,481,1.5516
16.7370,475,1.5323
16.7412,496,1.6000
16.7453,514,1.6581
16.7495,504,1.6258
16.7538,488,1.5742
16.7580,493,1.5903
16.7622,506,1.6323
16.7665,518,1.6710
16.7707,503,1.6226
16.7750,498,1.6065
16.7793,515,1.6613
16.7836,531,1.7129
16.7878,524,1.6903
16.7921,498,1.6065
16.7963,484,1.5613
16.8006,502,1.6194
16.8049,517,1.6677
16.8092,506,1.6323
16.8134,490,1.5806
16.8177,490,1.5806
16.8219,510,1.6452
16.8261,521,1.6806
16.8304,502,1.6194
16.8346,486,1.5677
16.8389,492,1.5871
16.8431,505,1.6290
16.8473,500,1.6129
16.8515,472,1.5226
16.8556,458,1.4774
16.8599,498,1.6065
16.8640,566,1.8258
16.8682,636,2.0516
16.8724,716,2.3097
16.8766,833,2.6871
16.8809,970,3.1290
16.8851,1001,3.2290
16.8893,1000,3.2258
16.8934,997,3.2161
16.8977,950,3.0645
16.9020,821,2.6484
16.9063,695,2.2419
16.9106,557,1.7968
16.9149,451,1.4548
16.9191,424,1.3677
16.9233,432,1.3935
16.9276,438,1.4129
16.9319,425,1.3710
16.9362,423,1.3645
16.9404,445,1.4355
16.9447,460,1.4839
16.9489,454,1.4645
16.9531,434,1.4000
16.9574,432,1.3935
16.9616,453,1.4613
16.9659,468,1.5097
16.9701,452,1.4581
16.9743,439,1.4161
16.9785,446,1.4387
16.9827,465,1.5000
16.9869,477,1.5387
16.9911,462,1.4903
16.9953,449,1.4484
16.9995,463,1.4935
17.0037,481,1.5516
17.0079,479,1.5452
17.0121,464,1.4968
17.0163,457,1.4742
17.0205,479,1.5452
17.0247,497,1.6032
17.0289,494,1.5935
17.0332,479,1.5452
17.0375,476,1.5355
17.0418,500,1.6129
17.0460,516,1.6645
17.0503,500,1.6129
17.0546,489,1.5774
17.0588,502,1.6194
17.0632,526,1.6968
17.0674,535,1.7258
17.0716,519,1.6742
17.0758,512,1.6516
17.0801,533,1.7194
17.0843,553,1.7839
17.0886,552,1.7806
17.0928,537,1.7323
17.0971,535,1.7258
17.1013,563,1.8161
17.1056,580,1.8710
17.1098,570,1.8387
17.1139,554,1.7871
17.1181,563,1.8161
17.1223,582,1.8774
17.1265,596,1.9226
17.1308,582,1.8774
17.1350,568,1.8323
17.1391,579,1.8677
17.1434,593,1.9129
17.1476,592,1.9097
17.1518,563,1.8161
17.1559,542,1.7484
17.1601,551,1.7774
17.1644,557,1.7968
17.1687,539,1.7387
17.1729,507,1.6355
17.1772,490,1.5806
17.1815,502,1.6194
17.1858,511,1.6484
17.1900,490,1.5806
17.1943,469,1.5129
17.1986,471,1.5194
17.2028,485,1.5645
17.2071,492,1.5871
17.2114,471,1.5194
17.2156,457,1.4742
17.2199,473,1.5258
17.2242,490,1.5806
17.2284,487,1.5710
17.2327,472,1.5226
17.2370,465,1.5000
17.2413,488,1.5742
17.2455,507,1.6355
17.2498,493,1.5903
17.2541,478,1.5419
17.2584,484,1.5613
17.2627,506,1.6323
17.2669,519,1.6742
17.2712,499,1.6097
17.2755,486,1.5677
17.2797,499,1.6097
17.2840,517,1.6677
17.2883,516,1.6645
17.2925,496,1.6000
17.2968,488,1.5742
17.3011,506,1.6323
17.3054,521,1.6806
17.3096,506,1.6323
17.3139,485,1.5645
17.3182,486,1.5677
17.3225,504,1.6258
17.3267,515,1.6613
17.3311,491,1.5839
17.3354,475,1.5323
17.3397,489,1.5774
17.3440,505,1.6290
17.3482,500,1.6129
17.3525,481,1.5516
17.3567,472,1.5226
17.3609,494,1.5935
17.3651,509,1.6419
17.3694,500,1.6129
17.3737,481,1.5516
17.3779,481,1.5516
17.3822,499,1.6097
17.3864,509,1.6419
17.3906,491,1.5839
17.3950,473,1.5258
17.3992,483,1.5581
17.4034,502,1.6194
17.4076,508,1.6387
17.4118,489,1.5774
17.4160,476,1.5355
17.4202,492,1.5871
17.4244,509,1.6419
17.4286,504,1.6258
17.4328,487,1.5710
17.4370,478,1.5419
17.4412,498,1.6065
17.4455,510,1.6452
17.4497,496,1.6000
17.4539,479,1.5452
17.4582,480,1.5484
17.4625,503,1.6226
17.4668,514,1.6581
17.4710,494,1.5935
17.4753,478,1.5419
17.4796,494,1.5935
17.4838,512,1.6516
17.4880,513,1.6548
17.4923,492,1.5871
17.4965,484,1.5613
17.5008,500,1.6129
17.5051,516,1.6645
17.5093,508,1.6387
17.5136,500,1.6129
17.5178,502,1.6194
17.5221,524,1.6903
17.5263,532,1.7161
17.5305,513,1.6548
17.5348,500,1.6129
17.5390,517,1.6677
17.5433,539,1.7387
17.5474,543,1.7516
17.5516,515,1.6613
17.5559,496,1.6000
17.5600,503,1.6226
17.5642,516,1.6645
17.5684,514,1.6581
17.5726,494,1.5935
17.5769,485,1.5645
17.5811,505,1.6290
17.5853,521,1.6806
17.5896,511,1.6484
17.5938,493,1.5903
17.5981,490,1.5806
17.6024,504,1.6258
17.6067,512,1.6516
17.6109,483,1.5581
17.6152,458,1.4774
17.6195,464,1.4968
17.6239,494,1.5935
17.6282,538,1.7355
17.6324,590,1.9032
17.6366,671,2.1645
17.6409,814,2.6258
17.6451,969,3.1258
17.6493,998,3.2194
17.6536,1002,3.2323
17.6578,1003,3.2355
17.6621,998,3.2194
17.6663,953,3.0742
17.6706,759,2.4484
17.6748,573,1.8484
17.6791,472,1.5226
17.6833,447,1.4419
17.6875,451,1.4548
17.6917,433,1.3968
17.6959,423,1.3645
17.7002,440,1.4194
17.7043,458,1.4774
17.7085,456,1.4710
17.7127,436,1.4065
17.7169,427,1.3774
17.7211,447,1.4419
17.7253,462,1.4903
17.7295,453,1.4613
17.7337,435,1.4032
17.7379,432,1.3935
17.7422,456,1.4710
17.7465,470,1.5161
17.7508,453,1.4613
17.7551,439,1.4161
17.7593,450,1.4516
17.7636,472,1.5226
17.7679,477,1.5387
17.7722,459,1.4806
17.7764,449,1.4484
17.7806,473,1.5258
17.7849,491,1.5839
17.7891,487,1.5710
17.7933,469,1.5129
17.7976,465,1.5000
17.8019,489,1.5774
17.8061,506,1.6323
17.8104,495,1.5968
17.8147,481,1.5516
17.8189,488,1.5742
17.8231,512,1.6516
17.8273,528,1.7032
17.8315,514,1.6581
17.8356,504,1.6258
17.8399,519,1.6742
17.8441,540,1.7419
17.8483,548,1.7677
17.8525,531,1.7129
17.8566,525,1.6935
17.8608,553,1.7839
17.8650,575,1.8548
17.8692,574,1.8516
17.8734,557,1.7968
17.8776,556,1.7935
17.8819,576,1.8581
17.8861,595,1.9194
17.8905,583,1.8806
17.8948,565,1.8226
17.8991,571,1.8419
17.9034,591,1.9065
17.9076,594,1.9161
17.9118,567,1.8290
17.9160,547,1.7645
17.9203,554,1.7871
17.9246,558,1.8000
17.9289,545,1.7581
17.9331,512,1.6516
17.9373,491,1.5839
17.9415,503,1.6226
17.9458,508,1.6387
17.9500,488,1.5742
17.9542,465,1.5000
17.9584,459,1.4806
17.9626,475,1.5323
17.9668,483,1.5581
17.9710,465,1.5000
17.9752,448,1.4452
17.9794,455,1.4677
17.9836,474,1.5290
17.9878,483,1.5581
17.9920,464,1.4968
17.9962,452,1.4581
18.0006,471,1.5194
18.0049,490,1.5806
18.0091,486,1.5677
18.0134,468,1.5097
18.0177,465,1.5000
18.0219,490,1.5806
18.0262,503,1.6226
18.0305,488,1.5742
18.0347,472,1.5226
18.0390,477,1.5387
18.0432,498,1.6065
18.0475,509,1.6419
18.0518,487,1.5710
18.0561,474,1.5290
18.0603,487,1.5710
18.0645,507,1.6355
18.0688,504,1.6258
18.0730,482,1.5548
18.0773,470,1.5161
18.0815,491,1.5839
18.0857,507,1.6355
18.0899,497,1.6032
18.0941,480,1.5484
18.0983,475,1.5323
18.1025,493,1.5903
18.1068,505,1.6290
18.1110,488,1.5742
18.1152,471,1.5194
18.1194,476,1.5355
18.1236,496,1.6000
18.1278,506,1.6323
18.1320,483,1.5581
18.1362,465,1.5000
18.1404,481,1.5516
18.1447,497,1.6032
18.1490,495,1.5968
18.1534,474,1.5290
18.1576,466,1.5032
18.1619,488,1.5742
18.1661,504,1.6258
18.1704,490,1.5806
18.1747,473,1.5258
18.1790,478,1.5419
18.1832,497,1.6032
18.1874,504,1.6258
18.1917,485,1.5645
18.1960,472,1.5226
18.2002,485,1.5645
18.2044,500,1.6129
18.2087,502,1.6194
18.2129,483,1.5581
18.2171,471,1.5194
18.2213,492,1.5871
18.2254,509,1.6419
18.2296,504,1.6258
18.2338,484,1.5613
18.2381,476,1.5355
18.2423,496,1.6000
18.2465,509,1.6419
18.2507,496,1.6000
18.2550,480,1.5484
18.2592,485,1.5645
18.2634,503,1.6226
18.2676,512,1.6516
18.2718,491,1.5839
18.2761,480,1.5484
18.2804,499,1.6097
18.2847,524,1.6903
18.2890,524,1.6903
18.2933,503,1.6226
18.2976,490,1.5806
18.3019,510,1.6452
18.3061,535,1.7258
18.3104,529,1.7065
18.3147,511,1.6484
18.3190,507,1.6355
18.3232,521,1.6806
18.3274,524,1.6903
18.3316,496,1.6000
18.3359,478,1.5419
18.3401,489,1.5774
18.3444,511,1.6484
18.3487,514,1.6581
18.3529,494,1.5935
18.3571,482,1.5548
18.3613,500,1.6129
18.3655,516,1.6645
18.3696,506,1.6323
18.3738,483,1.5581
18.3781,470,1.5161
18.3823,481,1.5516
18.3864,484,1.5613
18.3906,470,1.5161
18.3949,477,1.5387
18.3991,535,1.7258
18.4033,632,2.0387
18.4076,739,2.3839
18.4118,855,2.7581
18.4161,979,3.1581
18.4204,1001,3.2290
18.4247,1003,3.2355
18.4291,1000,3.2258
18.4333,988,3.1871
18.4376,830,2.6774
18.4419,665,2.1452
18.4462,542,1.7484
18.4505,458,1.4774
18.4548,420,1.3548
18.4590,423,1.3645
18.4633,447,1.4419
18.4675,462,1.4903
18.4717,444,1.4323
18.4759,427,1.3774
18.4802,436,1.4065
18.4845,453,1.4613
18.4887,454,1.4645
18.4929,436,1.4065
18.4971,425,1.3710
18.5014,444,1.4323
18.5056,462,1.4903
18.5097,457,1.4742
18.5139,439,1.4161
18.5181,435,1.4032
18.5223,460,1.4839
18.5265,476,1.5355
18.5307,466,1.5032
18.5349,450,1.4516
18.5391,451,1.4548
18.5433,473,1.5258
18.5476,487,1.5710
18.5518,471,1.5194
18.5560,460,1.4839
18.5602,474,1.5290
18.5645,496,1.6000
18.5688,501,1.6161
18.5731,483,1.5581
18.5773,473,1.5258
18.5816,494,1.5935
18.5859,515,1.6613
18.5902,509,1.6419
18.5945,496,1.6000
18.5987,498,1.6065
18.6030,523,1.6871
18.6072,538,1.7355
18.6114,524,1.6903
18.6156,512,1.6516
18.6199,524,1.6903
18.6241,547,1.7645
18.6284,561,1.8097
18.6327,547,1.7645
18.6370,543,1.7516
18.6412,566,1.8258
18.6455,585,1.8871
18.6497,581,1.8742
18.6539,566,1.8258
18.6582,559,1.8032
18.6624,581,1.8742
18.6667,597,1.9258
18.6710,586,1.8903
18.6752,566,1.8258
18.6795,564,1.8194
18.6838,574,1.8516
18.6881,577,1.8613
18.6924,551,1.7774
18.6967,523,1.6871
18.7009,524,1.6903
18.7052,529,1.7065
18.7095,519,1.6742
18.7137,485,1.5645
18.7180,469,1.5129
18.7223,484,1.5613
18.7266,493,1.5903
18.7308,474,1.5290
18.7351,456,1.4710
18.7394,458,1.4774
18.7437,477,1.5387
18.7479,484,1.5613
18.7522,463,1.4935
18.7565,451,1.4548
18.7608,465,1.5000
18.7650,487,1.5710
18.7693,488,1.5742
18.7736,469,1.5129
18.7779,460,1.4839
18.7821,485,1.5645
18.7864,503,1.6226
18.7907,494,1.5935
18.7949,477,1.5387
18.7992,478,1.5419
18.8035,499,1.6097
18.8077,512,1.6516
18.8120,496,1.6000
18.8163,483,1.5581
18.8205,495,1.5968
18.8248,513,1.6548
18.8291,514,1.6581
18.8334,493,1.5903
18.8377,477,1.5387
18.8420,495,1.5968
18.8463,509,1.6419
18.8505,498,1.6065
18.8549,480,1.5484
18.8592,478,1.5419
18.8634,495,1.5968
18.8678,507,1.6355
18.8721,486,1.5677
18.8763,469,1.5129
18.8806,481,1.5516
18.8849,498,1.6065
18.8892,499,1.6097
18.8935,477,1.5387
18.8978,464,1.4968
18.9020,486,1.5677
18.9063,500,1.6129
18.9106,488,1.5742
18.9149,470,1.5161
18.9192,471,1.5194
18.9234,492,1.5871
18.9277,502,1.6194
18.9320,482,1.5548
18.9364,467,1.5065
18.9407,479,1.5452
18.9450,496,1.6000
18.9492,498,1.6065
18.9535,478,1.5419
18.9578,466,1.5032
18.9621,488,1.5742
18.9663,503,1.6226
18.9706,494,1.5935
18.9749,476,1.5355
18.9792,475,1.5323
18.9835,492,1.5871
18.9878,504,1.6258
18.9920,487,1.5710
18.9964,473,1.5258
19.0007,484,1.5613
19.0050,500,1.6129
19.0093,502,1.6194
19.0136,483,1.5581
19.0178,471,1.5194
19.0221,489,1.5774
19.0264,506,1.6323
19.0307,499,1.6097
19.0350,480,1.5484
19.0392,480,1.5484
19.0435,498,1.6065
19.0478,512,1.6516
19.0521,496,1.6000
19.0563,486,1.5677
19.0606,499,1.6097
19.0649,519,1.6742
19.0692,518,1.6710
19.0735,495,1.5968
19.0778,488,1.5742
19.0820,515,1.6613
19.0863,536,1.7290
19.0906,526,1.6968
19.0949,497,1.6032
19.0992,487,1.5710
19.1035,500,1.6129
19.1077,511,1.6484
19.1120,494,1.5935
19.1162,478,1.5419
19.1205,486,1.5677
19.1248,506,1.6323
19.1291,515,1.6613
19.1333,495,1.5968
19.1376,483,1.5581
19.1419,499,1.6097
19.1462,511,1.6484
19.1505,497,1.6032
19.1547,468,1.5097
19.1591,454,1.4645
19.1633,473,1.5258
19.1676,507,1.6355
19.1719,548,1.7677
19.1761,609,1.9645
19.1804,719,2.3194
19.1847,859,2.7710
19.1890,983,3.1710
19.1933,999,3.2226
19.1976,999,3.2226
19.2019,998,3.2194
19.2062,937,3.0226
19.2104,781,2.5194
19.2147,631,2.0355
19.2190,513,1.6548
19.2233,456,1.4710
19.2276,437,1.4097
19.2319,415,1.3387
19.2362,404,1.3032
19.2405,420,1.3548
19.2447,443,1.4290
19.2490,451,1.4548
19.2533,432,1.3935
19.2576,419,1.3516
19.2619,438,1.4129
19.2662,458,1.4774
19.2705,452,1.4581
19.2748,433,1.3968
19.2791,429,1.3839
19.2834,451,1.4548
19.2877,466,1.5032
19.2920,451,1.4548
19.2963,435,1.4032
19.3007,446,1.4387
19.3050,468,1.5097
19.3092,475,1.5323
19.3135,454,1.4645
19.3178,443,1.4290
19.3220,465,1.5000
19.3263,483,1.5581
19.3306,478,1.5419
19.3349,462,1.4903
19.3392,463,1.4935
19.3434,488,1.5742
19.3477,503,1.6226
19.3520,486,1.5677
19.3563,474,1.5290
19.3606,488,1.5742
19.3649,512,1.6516
19.3692,522,1.6839
19.3734,506,1.6323
19.3778,497,1.6032
19.3820,519,1.6742
19.3863,540,1.7419
19.3906,541,1.7452
19.3949,529,1.7065
19.3991,531,1.7129
19.4035,560,1.8065
19.4078,579,1.8677
19.4121,566,1.8258
19.4164,554,1.7871
19.4206,567,1.8290
19.4249,592,1.9097
19.4292,597,1.9258
19.4335,580,1.8710
19.4378,569,1.8355
19.4420,585,1.8871
19.4463,598,1.9290
19.4506,587,1.8935
19.4549,562,1.8129
19.4592,549,1.7710
19.4634,561,1.8097
19.4677,563,1.8161
19.4720,536,1.7290
19.4762,506,1.6323
19.4805,502,1.6194
19.4848,512,1.6516
19.4891,508,1.6387
19.4934,478,1.5419
19.4977,458,1.4774
19.5019,472,1.5226
19.5062,487,1.5710
19.5105,480,1.5484
19.5148,456,1.4710
19.5191,449,1.4484
19.5234,470,1.5161
19.5276,485,1.5645
19.5319,471,1.5194
19.5361,459,1.4806
19.5403,465,1.5000
19.5444,487,1.5710
19.5486,499,1.6097
19.5529,482,1.5548
19.5570,466,1.5032
19.5612,480,1.5484
19.5654,501,1.6161
19.5696,505,1.6290
19.5738,487,1.5710
19.5780,477,1.5387
19.5823,494,1.5935
19.5865,511,1.6484
19.5908,505,1.6290
19.5952,487,1.5710
19.5996,484,1.5613
19.6040,502,1.6194
19.6084,513,1.6548
19.6128,495,1.5968
19.6172,480,1.5484
19.6216,492,1.5871
19.6260,507,1.6355
19.6304,501,1.6161
19.6348,483,1.5581
19.6392,479,1.5452
19.6436,497,1.6032
19.6480,507,1.6355
19.6524,488,1.5742
19.6568,472,1.5226
19.6612,483,1.5581
19.6657,502,1.6194
19.6701,501,1.6161
19.6745,482,1.5548
19.6789,474,1.5290
19.6833,494,1.5935
19.6877,510,1.6452
19.6921,492,1.5871
19.6964,475,1.5323
19.7007,482,1.5548
19.7051,498,1.6065
19.7094,504,1.6258
19.7137,484,1.5613
19.7181,471,1.5194
19.7224,492,1.5871
19.7268,509,1.6419
19.7311,502,1.6194
19.7354,482,1.5548
19.7398,478,1.5419
19.7441,499,1.6097
19.7484,514,1.6581
19.7530,495,1.5968
19.7574,477,1.5387
19.7617,491,1.5839
19.7660,509,1.6419
19.7704,507,1.6355
19.7747,488,1.5742
19.7791,481,1.5516
19.7835,504,1.6258
19.7878,520,1.6774
19.7921,503,1.6226
19.7965,485,1.5645
19.8008,492,1.5871
19.8051,511,1.6484
19.8094,520,1.6774
19.8138,500,1.6129
19.8181,486,1.5677
19.8224,504,1.6258
19.8268,520,1.6774
19.8311,517,1.6677
19.8355,503,1.6226
19.8398,502,1.6194
19.8442,526,1.6968
19.8484,537,1.7323
19.8527,519,1.6742
19.8571,510,1.6452
19.8614,531,1.7129
19.8658,549,1.7710
19.8701,545,1.7581
19.8744,515,1.6613
19.8787,496,1.6000
19.8831,512,1.6516
19.8874,527,1.7000
19.8918,516,1.6645
19.8961,500,1.6129
19.9004,503,1.6226
19.9047,522,1.6839
19.9091,532,1.7161
19.9134,510,1.6452
19.9178,495,1.5968
19.9221,504,1.6258
19.9264,516,1.6645
19.9308,504,1.6258
19.9351,477,1.5387
19.9394,469,1.5129
19.9438,511,1.6484
19.9481,579,1.8677
19.9524,643,2.0742
19.9567,727,2.3452
19.9610,865,2.7903
19.9653,996,3.2129
19.9697,1001,3.2290
19.9740,1002,3.2323
19.9783,1001,3.2290
19.9827,992,3.2000
19.9870,863,2.7839
19.9914,687,2.2161
19.9957,537,1.7323
20.0001,456,1.4710
20.0045,450,1.4516
20.0089,461,1.4871
20.0137,446,1.4387
20.0266,476,1.5355
20.0312,467,1.5065
20.0356,446,1.4387
20.0400,444,1.4323
20.0443,468,1.5097
20.0487,481,1.5516
20.0531,462,1.4903
20.0574,448,1.4452
20.0617,462,1.4903
20.0661,481,1.5516
20.0704,483,1.5581
20.0748,466,1.5032
20.0792,457,1.4742
20.0835,484,1.5613
20.0879,502,1.6194
20.0922,491,1.5839
20.0966,475,1.5323
20.1009,484,1.5613
20.1052,506,1.6323
20.1096,516,1.6645
20.1140,497,1.6032
20.1184,487,1.5710
20.1227,508,1.6387
20.1270,530,1.7097
20.1314,525,1.6935
20.1357,505,1.6290
20.1401,506,1.6323
20.1444,530,1.7097
20.1488,546,1.7613
20.1531,533,1.7194
20.1575,522,1.6839
20.1618,538,1.7355
20.1662,559,1.8032
20.1705,566,1.8258
20.1749,550,1.7742
20.1793,547,1.7645
20.1836,571,1.8419
20.1879,591,1.9065
20.1923,581,1.8742
20.1966,568,1.8323
20.2010,579,1.8677
20.2053,601,1.9387
20.2096,609,1.9645
20.2140,587,1.8935
20.2184,577,1.8613
20.2227,595,1.9194
20.2270,609,1.9645
20.2313,595,1.9194
20.2357,566,1.8258
20.2400,554,1.7871
20.2444,566,1.8258
20.2487,567,1.8290
20.2531,536,1.7290
20.2574,507,1.6355
20.2618,507,1.6355
20.2661,514,1.6581
20.2704,508,1.6387
20.2749,484,1.5613
20.2793,469,1.5129
20.2837,484,1.5613
20.2880,495,1.5968
20.2923,478,1.5419
20.2966,462,1.4903
20.3010,468,1.5097
20.3053,489,1.5774
20.3096,496,1.6000
20.3140,477,1.5387
20.3183,463,1.4935
20.3227,481,1.5516
20.3271,500,1.6129
20.3315,495,1.5968
20.3358,479,1.5452
20.3402,477,1.5387
20.3446,499,1.6097
20.3489,512,1.6516
20.3533,493,1.5903
20.3576,479,1.5452
20.3620,494,1.5935
20.3663,511,1.6484
20.3706,510,1.6452
20.3749,490,1.5806
20.3792,479,1.5452
20.3835,499,1.6097
20.3878,512,1.6516
20.3921,497,1.6032
20.3964,479,1.5452
20.4007,480,1.5484
20.4050,501,1.6161
20.4093,508,1.6387
20.4137,485,1.5645
20.4180,468,1.5097
20.4223,482,1.5548
20.4266,499,1.6097
20.4309,494,1.5935
20.4353,473,1.5258
20.4396,463,1.4935
20.4439,483,1.5581
20.4482,491,1.5839
20.4525,476,1.5355
20.4568,459,1.4806
20.4611,462,1.4903
20.4654,481,1.5516
20.4697,489,1.5774
20.4740,467,1.5065
20.4783,451,1.4548
20.4827,470,1.5161
20.4870,487,1.5710
20.4913,483,1.5581
20.4956,463,1.4935
20.4999,456,1.4710
20.5042,478,1.5419
20.5085,494,1.5935
20.5128,475,1.5323
20.5171,456,1.4710
20.5214,463,1.4935
20.5257,478,1.5419
20.5300,483,1.5581
20.5344,465,1.5000
20.5387,455,1.4677
20.5430,470,1.5161
20.5473,483,1.5581
20.5516,475,1.5323
20.5559,456,1.4710
20.5603,452,1.4581
20.5646,473,1.5258
20.5689,486,1.5677
20.5732,467,1.5065
20.5775,451,1.4548
20.5818,460,1.4839
20.5861,478,1.5419
20.5905,482,1.5548
20.5948,461,1.4871
20.5992,447,1.4419
20.6035,468,1.5097
20.6078,491,1.5839
20.6121,487,1.5710
20.6164,472,1.5226
20.6208,471,1.5194
20.6251,488,1.5742
20.6294,503,1.6226
20.6337,487,1.5710
20.6380,476,1.5355
20.6423,487,1.5710
20.6466,498,1.6065
20.6509,492,1.5871
20.6552,467,1.5065
20.6595,450,1.4516
20.6638,467,1.5065
20.6681,483,1.5581
20.6724,470,1.5161
20.6767,453,1.4613
20.6810,455,1.4677
20.6853,473,1.5258
20.6896,485,1.5645
20.6940,464,1.4968
20.6983,447,1.4419
20.7027,453,1.4613
20.7072,459,1.4806
20.7115,440,1.4194
20.7159,417,1.3452
20.7203,433,1.3968
20.7247,513,1.6548
20.7292,609,1.9645
20.7336,695,2.2419
20.7380,813,2.6226
20.7424,963,3.1065
20.7467,999,3.2226
20.7512,1001,3.2290
20.7555,998,3.2194
20.7600,910,2.9355
20.7645,743,2.3968
20.7690,584,1.8839
20.7734,449,1.4484
20.7778,381,1.2290
20.7822,384,1.2387
20.7866,408,1.3161
20.7910,414,1.3355
20.7953,396,1.2774
20.7997,384,1.2387
20.8041,402,1.2968
20.8084,413,1.3323
20.8127,400,1.2903
20.8171,381,1.2290
20.8214,389,1.2548
20.8257,411,1.3258
20.8300,420,1.3548
20.8344,400,1.2903
20.8388,389,1.2548
20.8431,408,1.3161
20.8474,426,1.3742
20.8517,420,1.3548
20.8561,403,1.3000
20.8604,403,1.3000
20.8648,422,1.3613
20.8692,438,1.4129
20.8735,422,1.3613
20.8779,408,1.3161
20.8822,424,1.3677
20.8866,442,1.4258
20.8909,446,1.4387
20.8953,430,1.3871
20.8996,422,1.3613
20.9040,444,1.4323
20.9083,464,1.4968
20.9126,453,1.4613
20.9169,440,1.4194
20.9212,447,1.4419
20.9256,470,1.5161
20.9299,481,1.5516
20.9342,464,1.4968
20.9386,455,1.4677
20.9429,478,1.5419
20.9473,505,1.6290
20.9516,505,1.6290
20.9559,489,1.5774
20.9602,490,1.5806
20.9646,514,1.6581
20.9689,532,1.7161
20.9732,519,1.6742
20.9776,504,1.6258
20.9819,514,1.6581
20.9862,536,1.7290
20.9905,542,1.7484
20.9949,519,1.6742
20.9992,505,1.6290
21.0036,522,1.6839
21.0079,533,1.7194
21.0122,519,1.6742
21.0165,490,1.5806
21.0209,479,1.5452
21.0252,487,1.5710
21.0296,486,1.5677
21.0339,456,1.4710
21.0382,429,1.3839
21.0426,431,1.3903
21.0469,440,1.4194
21.0512,431,1.3903
21.0555,407,1.3129
21.0599,392,1.2645
21.0642,412,1.3290
21.0685,426,1.3742
21.0728,414,1.3355
21.0772,396,1.2774
21.0816,401,1.2935
21.0859,422,1.3613
21.0903,431,1.3903
21.0946,413,1.3323
21.0989,404,1.3032
21.1032,421,1.3581
21.1076,438,1.4129
21.1119,434,1.4000
21.1162,418,1.3484
21.1206,418,1.3484
21.1249,441,1.4226
21.1293,455,1.4677
21.1338,436,1.4065
21.1382,422,1.3613
21.1426,435,1.4032
21.1470,454,1.4645
21.1514,452,1.4581
21.1558,431,1.3903
21.1602,424,1.3677
21.1646,445,1.4355
21.1691,457,1.4742
21.1735,440,1.4194
21.1778,427,1.3774
21.1822,435,1.4032
21.1866,452,1.4581
21.1910,453,1.4613
21.1954,432,1.3935
21.1998,421,1.3581
21.2042,440,1.4194
21.2086,454,1.4645
21.2130,440,1.4194
21.2173,424,1.3677
21.2217,429,1.3839
21.2262,449,1.4484
21.2306,453,1.4613
21.2349,431,1.3903
21.2393,422,1.3613
21.2437,443,1.4290
21.2481,460,1.4839
21.2525,449,1.4484
21.2568,429,1.3839
21.2612,428,1.3806
21.2655,448,1.4452
21.2699,460,1.4839
21.2743,438,1.4129
21.2788,424,1.3677
21.2832,442,1.4258
21.2876,460,1.4839
21.2920,453,1.4613
21.2965,435,1.4032
21.3008,434,1.4000
21.3051,455,1.4677
21.3094,469,1.5129
21.3137,450,1.4516
21.3180,436,1.4065
21.3223,444,1.4323
21.3266,464,1.4968
21.3309,469,1.5129
21.3353,448,1.4452
21.3396,438,1.4129
21.3439,457,1.4742
21.3482,472,1.5226
21.3525,463,1.4935
21.3568,449,1.4484
21.3611,448,1.4452
21.3654,467,1.5065
21.3697,479,1.5452
21.3740,460,1.4839
21.3784,451,1.4548
21.3827,469,1.5129
21.3870,490,1.5806
21.3913,490,1.5806
21.3957,467,1.5065
21.4002,461,1.4871
21.4045,486,1.5677
21.4088,508,1.6387
21.4132,496,1.6000
21.4176,474,1.5290
21.4220,475,1.5323
21.4264,484,1.5613
21.4308,485,1.5645
21.4352,464,1.4968
21.4396,450,1.4516
21.4440,471,1.5194
21.4484,489,1.5774
21.4528,479,1.5452
21.4572,460,1.4839
21.4615,463,1.4935
21.4659,483,1.5581
21.4702,488,1.5742
21.4746,462,1.4903
21.4791,440,1.4194
21.4835,447,1.4419
21.4878,454,1.4645
21.4922,461,1.4871
21.4966,492,1.5871
21.5010,564,1.8194
21.5054,687,2.2161
21.5098,836,2.6968
21.5142,963,3.1065
21.5186,1001,3.2290
21.5231,1002,3.2323
21.5275,1000,3.2258
21.5319,969,3.1258
21.5364,785,2.5323
21.5408,603,1.9452
21.5455,487,1.5710
21.5498,441,1.4226
21.5542,412,1.3290
21.5585,399,1.2871
21.5629,417,1.3452
21.5674,437,1.4097
21.5717,438,1.4129
21.5761,418,1.3484
21.5805,411,1.3258
21.5849,435,1.4032
21.5893,448,1.4452
21.5938,432,1.3935
21.5982,417,1.3452
21.6026,428,1.3806
21.6070,448,1.4452
21.6113,451,1.4548
21.6157,435,1.4032
21.6201,426,1.3742
21.6245,452,1.4581
21.6290,470,1.5161
21.6334,457,1.4742
21.6378,442,1.4258
21.6423,453,1.4613
21.6466,472,1.5226
21.6510,479,1.5452
21.6554,461,1.4871
21.6598,453,1.4613
21.6642,477,1.5387
21.6685,496,1.6000
21.6728,488,1.5742
21.6772,472,1.5226
21.6816,479,1.5452
21.6859,504,1.6258
21.6903,520,1.6774
21.6946,505,1.6290
21.6989,495,1.5968
21.7032,510,1.6452
21.7076,533,1.7194
21.7119,538,1.7355
21.7162,524,1.6903
21.7206,523,1.6871
21.7249,550,1.7742
21.7293,572,1.8452
21.7336,563,1.8161
21.7380,552,1.7806
21.7423,564,1.8194
21.7466,587,1.8935
21.7510,595,1.9194
21.7553,582,1.8774
21.7596,569,1.8355
21.7640,589,1.9000
21.7683,607,1.9581
21.7726,597,1.9258
21.7769,574,1.8516
21.7812,564,1.8194
21.7855,577,1.8613
21.7899,581,1.8742
21.7942,551,1.7774
21.7985,524,1.6903
21.8029,523,1.6871
21.8072,528,1.7032
21.8115,520,1.6774
21.8159,491,1.5839
21.8202,474,1.5290
21.8246,486,1.5677
21.8289,495,1.5968
21.8332,477,1.5387
21.8376,459,1.4806
21.8420,462,1.4903
21.8463,484,1.5613
21.8507,494,1.5935
21.8550,471,1.5194
21.8593,458,1.4774
21.8636,476,1.5355
21.8680,499,1.6097
21.8723,496,1.6000
21.8766,479,1.5452
21.8809,477,1.5387
21.8852,498,1.6065
21.8896,515,1.6613
21.8939,501,1.6161
21.8983,485,1.5645
21.9026,495,1.5968
21.9069,515,1.6613
21.9113,519,1.6742
21.9156,497,1.6032
21.9200,486,1.5677
21.9243,504,1.6258
21.9286,519,1.6742
21.9329,510,1.6452
21.9373,491,1.5839
21.9416,489,1.5774
21.9459,509,1.6419
21.9503,519,1.6742
21.9546,497,1.6032
21.9591,481,1.5516
21.9634,494,1.5935
21.9677,511,1.6484
21.9720,508,1.6387
21.9763,490,1.5806
21.9806,479,1.5452
21.9850,499,1.6097
21.9893,514,1.6581
21.9937,496,1.6000
21.9981,479,1.5452
22.0026,487,1.5710
22.0070,507,1.6355
22.0113,512,1.6516
22.0157,490,1.5806
22.0201,479,1.5452
22.0245,499,1.6097
22.0288,516,1.6645
22.0332,507,1.6355
22.0376,490,1.5806
22.0420,491,1.5839
22.0463,511,1.6484
22.0507,520,1.6774
22.0551,500,1.6129
22.0595,486,1.5677
22.0639,504,1.6258
22.0683,522,1.6839
22.0727,515,1.6613
22.0771,497,1.6032
22.0815,494,1.5935
22.0859,516,1.6645
22.0903,528,1.7032
22.0947,509,1.6419
22.0992,493,1.5903
22.1036,507,1.6355
22.1080,527,1.7000
22.1124,525,1.6935
22.1168,503,1.6226
22.1212,495,1.5968
22.1256,518,1.6710
22.1300,533,1.7194
22.1344,514,1.6581
22.1388,496,1.6000
22.1432,508,1.6387
22.1476,533,1.7194
22.1520,538,1.7355
22.1564,518,1.6710
22.1607,504,1.6258
22.1651,525,1.6935
22.1693,545,1.7581
22.1737,541,1.7452
22.1780,526,1.6968
22.1823,528,1.7032
22.1866,546,1.7613
22.1909,549,1.7710
22.1952,523,1.6871
22.1995,503,1.6226
22.2038,518,1.6710
22.2081,535,1.7258
22.2124,531,1.7129
22.2167,514,1.6581
22.2211,509,1.6419
22.2254,531,1.7129
22.2297,544,1.7548
22.2340,531,1.7129
22.2385,511,1.6484
22.2429,511,1.6484
22.2472,521,1.6806
22.2515,519,1.6742
22.2558,496,1.6000
22.2602,503,1.6226
22.2645,576,1.8581
22.2689,672,2.1677
22.2732,765,2.4677
22.2775,868,2.8000
22.2819,977,3.1516
22.2862,1001,3.2290
22.2905,1002,3.2323
22.2949,998,3.2194
22.2992,949,3.0613
22.3036,817,2.6355
22.3079,699,2.2548
22.3123,584,1.8839
22.3166,477,1.5387
22.3210,427,1.3774
22.3253,440,1.4194
22.3296,460,1.4839
22.3339,456,1.4710
22.3382,449,1.4484
22.3426,458,1.4774
22.3470,481,1.5516
22.3513,489,1.5774
22.3556,469,1.5129
22.3599,457,1.4742
22.3643,475,1.5323
22.3686,495,1.5968
22.3729,490,1.5806
22.3772,472,1.5226
22.3816,470,1.5161
22.3859,495,1.5968
22.3903,510,1.6452
22.3946,493,1.5903
22.3989,478,1.5419
22.4033,490,1.5806
22.4076,511,1.6484
22.4120,516,1.6645
22.4163,497,1.6032
22.4206,491,1.5839
22.4250,516,1.6645
22.4293,532,1.7161
22.4338,523,1.6871
22.4381,508,1.6387
22.4424,515,1.6613
22.4468,539,1.7387
22.4511,550,1.7742
22.4555,535,1.7258
22.4598,526,1.6968
22.4641,543,1.7516
22.4684,563,1.8161
22.4727,564,1.8194
22.4770,550,1.7742
22.4813,548,1.7677
22.4857,578,1.8645
22.4900,598,1.9290
22.4944,587,1.8935
22.4987,575,1.8548
22.5031,589,1.9000
22.5074,614,1.9806
22.5118,625,2.0161
22.5161,605,1.9516
22.5204,593,1.9129
22.5248,618,1.9935
22.5292,636,2.0516
22.5335,627,2.0226
22.5378,608,1.9613
22.5422,607,1.9581
22.5465,623,2.0097
22.5508,626,2.0194
22.5552,599,1.9323
22.5595,574,1.8516
22.5638,577,1.8613
22.5682,581,1.8742
22.5725,566,1.8258
22.5768,534,1.7226
22.5811,516,1.6645
22.5855,529,1.7065
22.5898,536,1.7290
22.5942,516,1.6645
22.5985,496,1.6000
22.6029,499,1.6097
22.6072,516,1.6645
22.6115,524,1.6903
22.6158,503,1.6226
22.6201,490,1.5806
22.6245,508,1.6387
22.6288,527,1.7000
22.6331,523,1.6871
22.6374,505,1.6290
22.6417,498,1.6065
22.6460,524,1.6903
22.6504,539,1.7387
22.6547,527,1.7000
22.6591,511,1.6484
22.6635,523,1.6871
22.6678,542,1.7484
22.6721,545,1.7581
22.6765,524,1.6903
22.6808,513,1.6548
22.6851,530,1.7097
22.6894,545,1.7581
22.6938,535,1.7258
22.6981,517,1.6677
22.7024,516,1.6645
22.7066,534,1.7226
22.7108,546,1.7613
22.7150,527,1.7000
22.7191,510,1.6452
22.7233,518,1.6710
22.7275,534,1.7226
22.7316,539,1.7387
22.7358,519,1.6742
22.7399,505,1.6290
22.7441,518,1.6710
22.7483,533,1.7194
22.7524,533,1.7194
22.7566,511,1.6484
22.7608,497,1.6032
22.7649,517,1.6677
22.7692,534,1.7226
22.7734,527,1.7000
22.7777,505,1.6290
22.7820,501,1.6161
22.7863,521,1.6806
22.7905,538,1.7355
22.7949,519,1.6742
22.7992,501,1.6161
22.8034,510,1.6452
22.8076,527,1.7000
22.8118,535,1.7258
22.8159,513,1.6548
22.8201,499,1.6097
22.8242,513,1.6548
22.8284,532,1.7161
22.8325,532,1.7161
22.8367,512,1.6516
22.8408,502,1.6194
22.8450,523,1.6871
22.8492,540,1.7419
22.8533,532,1.7161
22.8575,515,1.6613
22.8617,508,1.6387
22.8658,529,1.7065
22.8700,541,1.7452
22.8741,529,1.7065
22.8783,512,1.6516
22.8824,512,1.6516
22.8866,534,1.7226
22.8908,546,1.7613
22.8949,528,1.7032
22.8991,514,1.6581
22.9034,525,1.6935
22.9076,547,1.7645
22.9118,559,1.8032
22.9160,539,1.7387
22.9201,523,1.6871
22.9243,534,1.7226
22.9285,553,1.7839
22.9326,563,1.8161
22.9368,551,1.7774
22.9409,537,1.7323
22.9451,549,1.7710
22.9493,556,1.7935
22.9534,540,1.7419
22.9576,517,1.6677
22.9617,509,1.6419
22.9659,531,1.7129
22.9701,546,1.7613
22.9742,533,1.7194
22.9784,515,1.6613
22.9825,514,1.6581
22.9867,537,1.7323
22.9909,546,1.7613
22.9950,527,1.7000
22.9992,506,1.6323
23.0033,501,1.6161
23.0075,511,1.6484
23.0117,514,1.6581
23.0158,501,1.6161
23.0200,521,1.6806
23.0241,596,1.9226
23.0283,701,2.2613
23.0325,822,2.6516
23.0367,937,3.0226
23.0408,999,3.2226
23.0450,1003,3.2355
23.0492,1003,3.2355
23.0533,1000,3.2258
23.0575,992,3.2000
23.0616,857,2.7645
23.0658,699,2.2548
23.0700,573,1.8484
23.0741,480,1.5484
23.0783,437,1.4097
23.0824,434,1.4000
23.0866,460,1.4839
23.0908,478,1.5419
23.0950,466,1.5032
23.0991,448,1.4452
23.1033,450,1.4516
23.1075,466,1.5032
23.1118,477,1.5387
23.1160,458,1.4774
23.1202,446,1.4387
23.1244,463,1.4935
23.1286,482,1.5548
23.1329,482,1.5548
23.1371,462,1.4903
23.1413,456,1.4710
23.1455,476,1.5355
23.1497,494,1.5935
23.1539,489,1.5774
23.1581,470,1.5161
23.1623,468,1.5097
23.1665,490,1.5806
23.1708,505,1.6290
23.1750,493,1.5903
23.1792,479,1.5452
23.1834,488,1.5742
23.1876,510,1.6452
23.1919,523,1.6871
23.1961,504,1.6258
23.2003,493,1.5903
23.2045,511,1.6484
23.2088,532,1.7161
23.2132,534,1.7226
23.2174,517,1.6677
23.2217,511,1.6484
23.2260,535,1.7258
23.2303,555,1.7903
23.2346,546,1.7613
23.2389,531,1.7129
23.2431,539,1.7387
23.2474,567,1.8290
23.2517,582,1.8774
23.2560,566,1.8258
23.2603,555,1.7903
23.2646,572,1.8452
23.2688,594,1.9161
23.2732,599,1.9323
23.2774,579,1.8677
23.2817,571,1.8419
23.2860,593,1.9129
23.2903,608,1.9613
23.2946,597,1.9258
23.2989,578,1.8645
23.3031,578,1.8645
23.3078,591,1.9065
23.3121,590,1.9032
23.3164,562,1.8129
23.3207,537,1.7323
23.3250,539,1.7387
23.3293,542,1.7484
23.3335,528,1.7032
23.3379,501,1.6161
23.3421,487,1.5710
23.3464,501,1.6161
23.3507,508,1.6387
23.3550,487,1.5710
23.3593,467,1.5065
23.3636,471,1.5194
23.3679,490,1.5806
23.3722,500,1.6129
23.3765,477,1.5387
23.3808,466,1.5032
23.3850,486,1.5677
23.3893,502,1.6194
23.3936,498,1.6065
23.3979,480,1.5484
23.4022,475,1.5323
23.4064,500,1.6129
23.4108,516,1.6645
23.4150,503,1.6226
23.4193,488,1.5742
23.4236,496,1.6000
23.4279,515,1.6613
23.4322,524,1.6903
23.4364,503,1.6226
23.4407,489,1.5774
23.4450,505,1.6290
23.4493,521,1.6806
23.4536,516,1.6645
23.4579,495,1.5968
23.4622,485,1.5645
23.4665,506,1.6323
23.4707,517,1.6677
23.4750,500,1.6129
23.4793,484,1.5613
23.4836,487,1.5710
23.4879,507,1.6355
23.4922,512,1.6516
23.4965,489,1.5774
23.5008,475,1.5323
23.5052,494,1.5935
23.5096,509,1.6419
23.5140,500,1.6129
23.5183,482,1.5548
23.5226,477,1.5387
23.5269,495,1.5968
23.5312,508,1.6387
23.5355,490,1.5806
23.5397,472,1.5226
23.5441,483,1.5581
23.5484,505,1.6290
23.5526,510,1.6452
23.5570,484,1.5613
23.5613,469,1.5129
23.5655,488,1.5742
23.5698,504,1.6258
23.5741,497,1.6032
23.5784,480,1.5484
23.5827,476,1.5355
23.5870,496,1.6000
23.5913,507,1.6355
23.5956,491,1.5839
23.5999,476,1.5355
23.6042,484,1.5613
23.6085,502,1.6194
23.6128,506,1.6323
23.6171,483,1.5581
23.6213,471,1.5194
23.6256,493,1.5903
23.6298,511,1.6484
23.6341,501,1.6161
23.6384,483,1.5581
23.6426,476,1.5355
23.6468,496,1.6000
23.6511,511,1.6484
23.6554,501,1.6161
23.6596,492,1.5871
23.6639,502,1.6194
23.6682,515,1.6613
23.6724,519,1.6742
23.6767,502,1.6194
23.6810,494,1.5935
23.6852,515,1.6613
23.6895,528,1.7032
23.6938,517,1.6677
23.6980,489,1.5774
23.7023,473,1.5258
23.7067,492,1.5871
23.7109,506,1.6323
23.7153,492,1.5871
23.7195,476,1.5355
23.7238,480,1.5484
23.7281,500,1.6129
23.7324,509,1.6419
23.7367,489,1.5774
23.7410,473,1.5258
23.7453,485,1.5645
23.7496,495,1.5968
23.7539,481,1.5516
23.7582,452,1.4581
23.7625,443,1.4290
23.7668,483,1.5581
23.7711,549,1.7710
23.7754,612,1.9742
23.7797,695,2.2419
23.7840,836,2.6968
23.7883,992,3.2000
23.7925,1001,3.2290
23.7968,1001,3.2290
23.8011,1001,3.2290
23.8055,992,3.2000
23.8099,848,2.7355
23.8143,651,2.1000
23.8186,494,1.5935
23.8229,424,1.3677
23.8272,429,1.3839
23.8315,444,1.4323
23.8358,430,1.3871
23.8401,415,1.3387
23.8444,424,1.3677
23.8487,440,1.4194
23.8530,443,1.4290
23.8573,421,1.3581
23.8616,410,1.3226
23.8659,430,1.3871
23.8702,449,1.4484
23.8745,442,1.4258
23.8788,425,1.3710
23.8831,422,1.3613
23.8874,447,1.4419
23.8917,459,1.4806
23.8960,441,1.4226
23.9003,428,1.3806
23.9046,441,1.4226
23.9089,463,1.4935
23.9132,466,1.5032
23.9175,447,1.4419
23.9218,437,1.4097
23.9261,459,1.4806
23.9304,479,1.5452
23.9347,474,1.5290
23.9391,459,1.4806
23.9433,460,1.4839
23.9476,484,1.5613
23.9519,498,1.6065
23.9562,483,1.5581
23.9605,471,1.5194
23.9648,485,1.5645
23.9692,508,1.6387
23.9735,513,1.6548
23.9778,497,1.6032
23.9820,489,1.5774
23.9863,514,1.6581
23.9906,536,1.7290
23.9950,531,1.7129
23.9993,519,1.6742
24.0036,526,1.6968
24.0079,550,1.7742
24.0122,565,1.8226
24.0165,550,1.7742
24.0208,539,1.7387
24.0251,554,1.7871
24.0293,573,1.8484
24.0337,577,1.8613
24.0379,557,1.7968
24.0422,546,1.7613
24.0465,561,1.8097
24.0508,572,1.8452
24.0551,558,1.8000
24.0594,531,1.7129
24.0637,521,1.6806
24.0680,530,1.7097
24.0722,527,1.7000
24.0766,496,1.6000
24.0809,470,1.5161
24.0852,474,1.5290
24.0895,482,1.5548
24.0938,474,1.5290
24.0981,446,1.4387
24.1024,432,1.3935
24.1067,451,1.4548
24.1110,466,1.5032
24.1153,454,1.4645
24.1196,434,1.4000
24.1239,435,1.4032
24.1282,457,1.4742
24.1325,469,1.5129
24.1368,450,1.4516
24.1411,436,1.4065
24.1455,453,1.4613
24.1498,475,1.5323
24.1541,473,1.5258
24.1584,457,1.4742
24.1627,453,1.4613
24.1670,477,1.5387
24.1713,493,1.5903
24.1756,480,1.5484
24.1799,463,1.4935
24.1842,469,1.5129
24.1885,489,1.5774
24.1928,498,1.6065
24.1971,478,1.5419
24.2014,464,1.4968
24.2057,479,1.5452
24.2100,496,1.6000
24.2143,490,1.5806
24.2186,470,1.5161
24.2229,463,1.4935
24.2272,484,1.5613
24.2315,497,1.6032
24.2358,481,1.5516
24.2401,461,1.4871
24.2445,465,1.5000
24.2488,483,1.5581
24.2531,488,1.5742
24.2573,468,1.5097
24.2616,456,1.4710
24.2660,473,1.5258
24.2703,490,1.5806
24.2746,482,1.5548
24.2789,464,1.4968
24.2832,460,1.4839
24.2875,480,1.5484
24.2918,492,1.5871
24.2961,475,1.5323
24.3004,458,1.4774
24.3047,465,1.5000
24.3090,482,1.5548
24.3133,490,1.5806
24.3176,471,1.5194
24.3220,459,1.4806
24.3263,478,1.5419
24.3306,496,1.6000
24.3349,489,1.5774
24.3392,470,1.5161
24.3435,467,1.5065
24.3478,487,1.5710
24.3520,501,1.6161
24.3564,483,1.5581
24.3607,462,1.4903
24.3650,470,1.5161
24.3693,488,1.5742
24.3736,493,1.5903
24.3779,475,1.5323
24.3822,463,1.4935
24.3865,483,1.5581
24.3908,497,1.6032
24.3951,489,1.5774
24.3995,474,1.5290
24.4038,479,1.5452
24.4082,502,1.6194
24.4126,512,1.6516
24.4169,488,1.5742
24.4213,479,1.5452
24.4256,502,1.6194
24.4299,524,1.6903
24.4342,522,1.6839
24.4385,498,1.6065
24.4427,480,1.5484
24.4470,494,1.5935
24.4513,505,1.6290
24.4556,492,1.5871
24.4599,475,1.5323
24.4642,476,1.5355
24.4684,497,1.6032
24.4727,509,1.6419
24.4770,489,1.5774
24.4813,475,1.5323
24.4856,488,1.5742
24.4899,502,1.6194
24.4942,496,1.6000
24.4985,469,1.5129
24.5028,450,1.4516
24.5071,463,1.4935
24.5114,481,1.5516
24.5156,498,1.6065
24.5199,545,1.7581
24.5242,633,2.0419
24.5286,772,2.4903
24.5328,918,2.9613
24.5371,998,3.2194
24.5414,1000,3.2258
24.5457,1002,3.2323
24.5500,998,3.2194
24.5543,911,2.9387
24.5586,726,2.3419
24.5628,572,1.8452
24.5671,486,1.5677
24.5715,447,1.4419
24.5758,421,1.3581
24.5800,407,1.3129
24.5843,415,1.3387
24.5886,441,1.4226
24.5929,457,1.4742
24.5972,438,1.4129
24.6014,423,1.3645
24.6057,436,1.4065
24.6100,455,1.4677
24.6143,456,1.4710
24.6186,438,1.4129
24.6229,432,1.3935
24.6272,455,1.4677
24.6315,473,1.5258
24.6357,461,1.4871
24.6400,445,1.4355
24.6443,451,1.4548
24.6486,473,1.5258
24.6529,485,1.5645
24.6572,465,1.5000
24.6615,452,1.4581
24.6657,468,1.5097
24.6701,490,1.5806
24.6744,492,1.5871
24.6787,475,1.5323
24.6830,469,1.5129
24.6873,492,1.5871
24.6916,509,1.6419
24.6959,499,1.6097
24.7002,486,1.5677
24.7046,495,1.5968
24.7091,516,1.6645
24.7135,527,1.7000
24.7177,512,1.6516
24.7220,503,1.6226
24.7263,523,1.6871
24.7306,543,1.7516
24.7349,544,1.7548
24.7392,533,1.7194
24.7435,534,1.7226
24.7478,560,1.8065
24.7521,579,1.8677
24.7563,567,1.8290
24.7606,556,1.7935
24.7649,568,1.8323
24.7692,592,1.9097
24.7735,601,1.9387
24.7778,581,1.8742
24.7821,566,1.8258
24.7864,582,1.8774
24.7906,599,1.9323
24.7950,591,1.9065
24.7993,570,1.8387
24.8035,556,1.7935
24.8078,565,1.8226
24.8121,567,1.8290
24.8165,537,1.7323
24.8207,508,1.6387
24.8251,503,1.6226
24.8293,510,1.6452
24.8336,506,1.6323
24.8380,478,1.5419
24.8422,462,1.4903
24.8465,475,1.5323
24.8508,486,1.5677
24.8551,477,1.5387
24.8593,457,1.4742
24.8636,451,1.4548
24.8679,471,1.5194
24.8722,484,1.5613
24.8765,471,1.5194
24.8808,456,1.4710
24.8851,465,1.5000
24.8894,485,1.5645
24.8937,492,1.5871
24.8980,473,1.5258
24.9023,465,1.5000
24.9066,485,1.5645
24.9108,502,1.6194
24.9151,497,1.6032
24.9194,479,1.5452
24.9238,475,1.5323
24.9280,495,1.5968
24.9323,507,1.6355
24.9366,493,1.5903
24.9409,477,1.5387
24.9452,486,1.5677
24.9495,503,1.6226
24.9538,509,1.6419
24.9581,488,1.5742
24.9624,474,1.5290
24.9667,489,1.5774
24.9710,503,1.6226
24.9753,495,1.5968
24.9796,479,1.5452
24.9839,475,1.5323
24.9882,495,1.5968
24.9926,504,1.6258
24.9969,484,1.5613
25.0012,468,1.5097
25.0055,476,1.5355
25.0098,494,1.5935
25.0146,492,1.5871
25.0193,471,1.5194
25.0250,472,1.5226
25.0295,491,1.5839
25.0339,498,1.6065
25.0385,477,1.5387
25.0430,465,1.5000
25.0474,486,1.5677
25.0517,502,1.6194
25.0559,491,1.5839
25.0602,474,1.5290
25.0645,476,1.5355
25.0688,496,1.6000
25.0735,505,1.6290
25.0785,481,1.5516
25.0828,471,1.5194
25.0871,490,1.5806
25.0914,506,1.6323
25.0957,498,1.6065
25.0999,479,1.5452
25.1042,478,1.5419
25.1085,503,1.6226
25.1128,512,1.6516
25.1171,492,1.5871
25.1215,474,1.5290
25.1258,487,1.5710
25.1301,508,1.6387
25.1344,508,1.6387
25.1386,486,1.5677
25.1429,474,1.5290
25.1472,494,1.5935
25.1515,513,1.6548
25.1557,510,1.6452
25.1605,494,1.5935
25.1648,495,1.5968
25.1691,514,1.6581
25.1734,525,1.6935
25.1777,510,1.6452
25.1820,503,1.6226
25.1863,519,1.6742
25.1906,532,1.7161
25.1949,524,1.6903
25.1991,497,1.6032
25.2034,481,1.5516
25.2077,500,1.6129
25.2119,515,1.6613
25.2162,506,1.6323
25.2205,489,1.5774
25.2248,493,1.5903
25.2291,513,1.6548
25.2334,523,1.6871
25.2377,505,1.6290
25.2425,489,1.5774
25.2469,502,1.6194
25.2511,510,1.6452
25.2554,495,1.5968
25.2596,473,1.5258
25.2639,477,1.5387
25.2682,538,1.7355
25.2729,630,2.0323
25.2772,711,2.2935
25.2815,819,2.6419
25.2858,950,3.0645
25.2901,1000,3.2258
25.2944,1002,3.2323
25.2986,999,3.2226
25.3029,971,3.1323
25.3074,844,2.7226
25.3118,714,2.3032
25.3161,590,1.9032
25.3203,478,1.5419
25.3249,426,1.3742
25.3292,435,1.4032
25.3335,449,1.4484
25.3378,435,1.4032
25.3420,426,1.3742
25.3463,444,1.4323
25.3506,465,1.5000
25.3549,466,1.5032
25.3592,445,1.4355
25.3634,437,1.4097
25.3678,460,1.4839
25.3721,473,1.5258
25.3764,465,1.5000
25.3807,450,1.4516
25.3850,456,1.4710
25.3893,479,1.5452
25.3935,488,1.5742
25.3978,468,1.5097
25.4021,455,1.4677
25.4067,474,1.5290
25.4110,493,1.5903
25.4152,493,1.5903
25.4195,476,1.5355
25.4238,473,1.5258
25.4281,498,1.6065
25.4324,516,1.6645
25.4366,504,1.6258
25.4408,491,1.5839
25.4451,495,1.5968
25.4493,518,1.6710
25.4536,530,1.7097
25.4578,512,1.6516
25.4621,501,1.6161
25.4663,520,1.6774
25.4706,541,1.7452
25.4749,545,1.7581
25.4791,529,1.7065
25.4834,524,1.6903
25.4876,548,1.7677
25.4919,570,1.8387
25.4961,566,1.8258
25.5004,556,1.7935
25.5046,562,1.8129
25.5089,584,1.8839
25.5131,597,1.9258
25.5174,584,1.8839
25.5216,571,1.8419
25.5258,583,1.8806
25.5302,606,1.9548
25.5345,614,1.9806
25.5388,591,1.9065
25.5430,577,1.8613
25.5473,592,1.9097
25.5516,602,1.9419
25.5559,588,1.8968
25.5601,559,1.8032
25.5644,542,1.7484
25.5687,553,1.7839
25.5730,554,1.7871
25.5774,527,1.7000
25.5818,500,1.6129
25.5861,503,1.6226
25.5904,514,1.6581
25.5948,510,1.6452
25.5992,481,1.5516
25.6035,466,1.5032
25.6093,490,1.5806
25.6138,498,1.6065
25.6181,473,1.5258
25.6224,460,1.4839
25.6268,477,1.5387
25.6314,499,1.6097
25.6357,497,1.6032
25.6400,480,1.5484
25.6442,475,1.5323
25.6485,496,1.6000
25.6527,512,1.6516
25.6570,502,1.6194
25.6613,487,1.5710
25.6655,494,1.5935
25.6698,513,1.6548
25.6741,521,1.6806
25.6784,500,1.6129
25.6827,491,1.5839
25.6869,507,1.6355
25.6912,522,1.6839
25.6954,517,1.6677
25.6997,496,1.6000
25.7040,489,1.5774
25.7082,507,1.6355
25.7125,522,1.6839
25.7167,507,1.6355
25.7210,488,1.5742
25.7253,490,1.5806
25.7296,509,1.6419
25.7339,514,1.6581
25.7381,492,1.5871
25.7424,477,1.5387
25.7467,492,1.5871
25.7509,511,1.6484
25.7552,507,1.6355
25.7595,485,1.5645
25.7637,474,1.5290
25.7680,494,1.5935
25.7723,508,1.6387
25.7766,501,1.6161
25.7809,481,1.5516
25.7851,479,1.5452
25.7894,499,1.6097
25.7936,511,1.6484
25.7979,492,1.5871
25.8021,476,1.5355
25.8064,486,1.5677
25.8107,503,1.6226
25.8149,507,1.6355
25.8192,485,1.5645
25.8235,475,1.5323
25.8278,494,1.5935
25.8320,509,1.6419
25.8363,500,1.6129
25.8406,480,1.5484
25.8449,478,1.5419
25.8492,501,1.6161
25.8535,515,1.6613
25.8578,499,1.6097
25.8620,485,1.5645
25.8664,495,1.5968
25.8707,513,1.6548
25.8749,518,1.6710
25.8792,499,1.6097
25.8835,490,1.5806
25.8878,510,1.6452
25.8921,525,1.6935
25.8964,513,1.6548
25.9007,494,1.5935
25.9050,496,1.6000
25.9093,524,1.6903
25.9136,544,1.7548
25.9179,526,1.6968
25.9222,509,1.6419
25.9265,521,1.6806
25.9308,540,1.7419
25.9351,546,1.7613
25.9394,530,1.7097
25.9437,517,1.6677
25.9480,531,1.7129
25.9523,537,1.7323
25.9566,519,1.6742
25.9609,497,1.6032
25.9652,496,1.6000
25.9695,516,1.6645
25.9737,528,1.7032
25.9780,510,1.6452
25.9823,495,1.5968
25.9866,507,1.6355
25.9909,526,1.6968
25.9952,526,1.6968
25.9995,501,1.6161
26.0038,483,1.5581
26.0082,493,1.5903
26.0125,497,1.6032
26.0168,480,1.5484
26.0211,473,1.5258
26.0254,519,1.6742
26.0297,618,1.9935
26.0341,725,2.3387
26.0384,835,2.6935
26.0428,968,3.1226
26.0472,1001,3.2290
26.0517,1004,3.2387
26.0561,1000,3.2258
26.0604,998,3.2194
26.0648,896,2.8903
26.0692,723,2.3323
26.0734,575,1.8548
26.0777,470,1.5161
26.0820,426,1.3742
26.0863,432,1.3935
26.0906,453,1.4613
26.0949,462,1.4903
26.0992,440,1.4194
26.1035,426,1.3742
26.1078,444,1.4323
26.1121,459,1.4806
26.1164,451,1.4548
26.1207,436,1.4065
26.1250,433,1.3968
26.1294,454,1.4645
26.1337,469,1.5129
26.1380,451,1.4548
26.1422,437,1.4097
26.1464,448,1.4452
26.1507,467,1.5065
26.1549,475,1.5323
26.1592,457,1.4742
26.1634,447,1.4419
26.1677,468,1.5097
26.1719,488,1.5742
26.1762,485,1.5645
