time_s,adc_raw,voltage
0.0000,545,1.7581
0.0044,563,1.8161
0.0087,536,1.7290
0.0130,527,1.7000
0.0173,558,1.8000
0.0216,589,1.9000
0.0260,588,1.8968
0.0303,557,1.7968
0.0346,556,1.7935
0.0391,598,1.9290
0.0437,621,2.0032
0.0480,598,1.9290
0.0524,578,1.8645
0.0567,594,1.9161
0.0611,630,2.0323
0.0654,630,2.0323
0.0698,594,1.9161
0.0742,577,1.8613
0.0786,603,1.9452
0.0829,615,1.9839
0.0872,588,1.8968
0.0914,549,1.7710
0.0956,543,1.7516
0.0998,561,1.8097
0.1040,558,1.8000
0.1082,516,1.6645
0.1124,481,1.5516
0.1166,485,1.5645
0.1207,509,1.6419
0.1249,509,1.6419
0.1291,472,1.5226
0.1332,453,1.4613
0.1375,474,1.5290
0.1416,501,1.6161
0.1458,495,1.5968
0.1500,454,1.4645
0.1542,444,1.4323
0.1584,475,1.5323
0.1626,500,1.6129
0.1669,492,1.5871
0.1713,464,1.4968
0.1760,467,1.5065
0.1807,502,1.6194
0.1851,507,1.6355
0.1896,472,1.5226
0.1941,468,1.5097
0.1988,507,1.6355
0.2035,527,1.7000
0.2082,501,1.6161
0.2128,477,1.5387
0.2174,499,1.6097
0.2218,524,1.6903
0.2261,521,1.6806
0.2304,489,1.5774
0.2346,479,1.5452
0.2389,512,1.6516
0.2431,529,1.7065
0.2473,508,1.6387
0.2515,480,1.5484
0.2557,482,1.5548
0.2598,519,1.6742
0.2640,533,1.7194
0.2682,506,1.6323
0.2724,477,1.5387
0.2765,485,1.5645
0.2807,515,1.6613
0.2849,523,1.6871
0.2891,492,1.5871
0.2933,474,1.5290
0.2974,492,1.5871
0.3016,521,1.6806
0.3058,522,1.6839
0.3100,489,1.5774
0.3142,476,1.5355
0.3184,503,1.6226
0.3226,519,1.6742
0.3268,509,1.6419
0.3311,476,1.5355
0.3353,474,1.5290
0.3395,510,1.6452
0.3437,526,1.6968
0.3479,498,1.6065
0.3521,475,1.5323
0.3563,485,1.5645
0.3604,519,1.6742
0.3646,526,1.6968
0.3688,494,1.5935
0.3730,476,1.5355
0.3772,494,1.5935
0.3813,526,1.6968
0.3855,528,1.7032
0.3897,492,1.5871
0.3939,475,1.5323
0.3981,500,1.6129
0.4023,521,1.6806
0.4065,518,1.6710
0.4107,487,1.5710
0.4148,483,1.5581
0.4190,514,1.6581
0.4232,530,1.7097
0.4274,512,1.6516
0.4316,487,1.5710
0.4357,493,1.5903
0.4399,531,1.7129
0.4441,543,1.7516
0.4483,512,1.6516
0.4524,492,1.5871
0.4566,511,1.6484
0.4608,552,1.7806
0.4650,562,1.8129
0.4692,528,1.7032
0.4733,504,1.6258
0.4775,515,1.6613
0.4817,534,1.7226
0.4859,530,1.7097
0.4901,495,1.5968
0.4944,483,1.5581
0.4987,514,1.6581
0.5029,535,1.7258
0.5072,523,1.6871
0.5114,493,1.5903
0.5155,492,1.5871
0.5197,526,1.6968
0.5239,532,1.7161
0.5281,499,1.6097
0.5323,467,1.5065
0.5364,469,1.5129
0.5406,497,1.6032
0.5448,517,1.6677
0.5490,524,1.6903
0.5532,574,1.8516
0.5574,681,2.1968
0.5615,824,2.6581
0.5657,958,3.0903
0.5699,997,3.2161
0.5741,1002,3.2323
0.5782,1003,3.2355
0.5824,1002,3.2323
0.5866,974,3.1419
0.5908,797,2.5710
0.5949,632,2.0387
0.5991,544,1.7548
0.6033,500,1.6129
0.6075,463,1.4935
0.6117,431,1.3903
0.6158,434,1.4000
0.6200,475,1.5323
0.6242,490,1.5806
0.6284,461,1.4871
0.6326,438,1.4129
0.6368,447,1.4419
0.6409,479,1.5452
0.6451,485,1.5645
0.6493,451,1.4548
0.6535,434,1.4000
0.6577,459,1.4806
0.6618,486,1.5677
0.6660,488,1.5742
0.6702,458,1.4774
0.6744,448,1.4452
0.6786,480,1.5484
0.6827,505,1.6290
0.6869,496,1.6000
0.6911,466,1.5032
0.6953,460,1.4839
0.6994,496,1.6000
0.7036,515,1.6613
0.7078,496,1.6000
0.7120,471,1.5194
0.7162,478,1.5419
0.7203,519,1.6742
0.7245,527,1.7000
0.7287,496,1.6000
0.7329,479,1.5452
0.7371,497,1.6032
0.7412,536,1.7290
0.7454,547,1.7645
0.7496,518,1.6710
0.7538,505,1.6290
0.7580,532,1.7161
0.7621,560,1.8065
0.7663,561,1.8097
0.7705,529,1.7065
0.7747,526,1.6968
0.7789,566,1.8258
0.7830,594,1.9161
0.7872,588,1.8968
0.7914,564,1.8194
0.7956,564,1.8194
0.7997,600,1.9355
0.8039,621,2.0032
0.8081,598,1.9290
0.8123,575,1.8548
0.8165,585,1.8871
0.8206,621,2.0032
0.8248,626,2.0194
0.8290,592,1.9097
0.8332,570,1.8387
0.8373,582,1.8774
0.8415,606,1.9548
0.8457,597,1.9258
0.8499,551,1.7774
0.8541,524,1.6903
0.8582,540,1.7419
0.8624,552,1.7806
0.8666,535,1.7258
0.8708,489,1.5774
0.8750,472,1.5226
0.8791,495,1.5968
0.8833,506,1.6323
0.8875,487,1.5710
0.8917,456,1.4710
0.8958,454,1.4645
0.9000,484,1.5613
0.9042,496,1.6000
0.9084,475,1.5323
0.9126,456,1.4710
0.9168,465,1.5000
0.9210,499,1.6097
0.9251,506,1.6323
0.9293,474,1.5290
0.9335,457,1.4742
0.9377,478,1.5419
0.9418,504,1.6258
0.9460,507,1.6355
0.9502,473,1.5258
0.9544,466,1.5032
0.9586,496,1.6000
0.9628,518,1.6710
0.9672,506,1.6323
0.9715,474,1.5290
0.9758,474,1.5290
0.9802,512,1.6516
0.9845,525,1.6935
0.9889,495,1.5968
0.9932,472,1.5226
0.9975,485,1.5645
1.0019,516,1.6645
1.0062,516,1.6645
1.0105,480,1.5484
1.0149,469,1.5129
1.0192,502,1.6194
1.0235,522,1.6839
1.0279,503,1.6226
1.0322,472,1.5226
1.0365,477,1.5387
1.0408,510,1.6452
1.0452,516,1.6645
1.0495,480,1.5484
1.0538,461,1.4871
1.0582,486,1.5677
1.0626,512,1.6516
1.0669,504,1.6258
1.0712,471,1.5194
1.0755,468,1.5097
1.0798,502,1.6194
1.0841,515,1.6613
1.0884,491,1.5839
1.0928,466,1.5032
1.0973,478,1.5419
1.1016,510,1.6452
1.1060,510,1.6452
1.1103,478,1.5419
1.1146,466,1.5032
1.1189,497,1.6032
1.1232,519,1.6742
1.1275,507,1.6355
1.1318,476,1.5355
1.1361,476,1.5355
1.1404,511,1.6484
1.1446,524,1.6903
1.1489,495,1.5968
1.1532,472,1.5226
1.1575,488,1.5742
1.1618,521,1.6806
1.1662,519,1.6742
1.1705,481,1.5516
1.1748,468,1.5097
1.1791,498,1.6065
1.1834,516,1.6645
1.1877,501,1.6161
1.1920,472,1.5226
1.1963,480,1.5484
1.2006,522,1.6839
1.2049,534,1.7226
1.2092,502,1.6194
1.2134,480,1.5484
1.2178,500,1.6129
1.2220,536,1.7290
1.2263,541,1.7452
1.2306,506,1.6323
1.2349,491,1.5839
1.2392,514,1.6581
1.2435,526,1.6968
1.2478,508,1.6387
1.2521,480,1.5484
1.2564,479,1.5452
1.2607,512,1.6516
1.2650,523,1.6871
1.2693,493,1.5903
1.2737,476,1.5355
1.2781,500,1.6129
1.2824,525,1.6935
1.2867,512,1.6516
1.2910,466,1.5032
1.2954,453,1.4613
1.2997,481,1.5516
1.3040,498,1.6065
1.3084,494,1.5935
1.3127,524,1.6903
1.3170,607,1.9581
1.3214,744,2.4000
1.3257,875,2.8226
1.3300,962,3.1032
1.3344,999,3.2226
1.3387,1000,3.2258
1.3430,998,3.2194
1.3474,944,3.0452
1.3517,768,2.4774
1.3560,630,2.0323
1.3603,558,1.8000
1.3647,490,1.5806
1.3691,425,1.3710
1.3734,399,1.2871
1.3777,423,1.3645
1.3820,458,1.4774
1.3863,463,1.4935
1.3906,430,1.3871
1.3951,420,1.3548
1.3995,452,1.4581
1.4038,474,1.5290
1.4081,457,1.4742
1.4124,432,1.3935
1.4167,436,1.4065
1.4210,471,1.5194
1.4253,481,1.5516
1.4296,450,1.4516
1.4339,434,1.4000
1.4382,458,1.4774
1.4424,488,1.5742
1.4468,483,1.5581
1.4510,447,1.4419
1.4553,441,1.4226
1.4596,477,1.5387
1.4639,495,1.5968
1.4682,476,1.5355
1.4725,453,1.4613
1.4768,459,1.4806
1.4811,498,1.6065
1.4854,508,1.6387
1.4897,478,1.5419
1.4940,462,1.4903
1.4983,490,1.5806
1.5026,519,1.6742
1.5069,518,1.6710
1.5112,483,1.5581
1.5155,477,1.5387
1.5198,516,1.6645
1.5241,537,1.7323
1.5284,519,1.6742
1.5327,501,1.6161
1.5370,513,1.6548
1.5412,554,1.7871
1.5455,571,1.8419
1.5498,544,1.7548
1.5541,530,1.7097
1.5584,557,1.7968
1.5627,586,1.8903
1.5670,587,1.8935
1.5713,556,1.7935
1.5757,553,1.7839
1.5800,588,1.8968
1.5843,605,1.9516
1.5887,579,1.8677
1.5930,549,1.7710
1.5973,554,1.7871
1.6016,580,1.8710
1.6060,576,1.8581
1.6103,531,1.7129
1.6147,504,1.6258
1.6190,517,1.6677
1.6233,524,1.6903
1.6276,495,1.5968
1.6320,448,1.4452
1.6363,441,1.4226
1.6406,472,1.5226
1.6450,475,1.5323
1.6493,437,1.4097
1.6536,413,1.3323
1.6580,430,1.3871
1.6623,460,1.4839
1.6666,461,1.4871
1.6709,424,1.3677
1.6753,414,1.3355
1.6797,446,1.4387
1.6840,462,1.4903
1.6883,442,1.4258
1.6926,420,1.3548
1.6969,428,1.3806
1.7012,465,1.5000
1.7055,471,1.5194
1.7098,438,1.4129
1.7141,421,1.3581
1.7184,446,1.4387
1.7227,474,1.5290
1.7270,465,1.5000
1.7313,433,1.3968
1.7356,427,1.3774
1.7399,460,1.4839
1.7441,474,1.5290
1.7484,451,1.4548
1.7527,426,1.3742
1.7570,431,1.3903
1.7613,465,1.5000
1.7656,471,1.5194
1.7699,439,1.4161
1.7742,422,1.3613
1.7785,441,1.4226
1.7829,464,1.4968
1.7872,456,1.4710
1.7915,420,1.3548
1.7958,414,1.3355
1.8002,449,1.4484
1.8045,465,1.5000
1.8089,439,1.4161
1.8132,414,1.3355
1.8176,425,1.3710
1.8219,454,1.4645
1.8262,454,1.4645
1.8305,420,1.3548
1.8357,410,1.3226
1.8401,447,1.4419
1.8444,462,1.4903
1.8488,437,1.4097
1.8531,408,1.3161
1.8574,417,1.3452
1.8618,454,1.4645
1.8661,457,1.4742
1.8704,421,1.3581
1.8749,407,1.3129
1.8792,437,1.4097
1.8836,461,1.4871
1.8880,443,1.4290
1.8922,413,1.3323
1.8966,418,1.3484
1.9008,458,1.4774
1.9051,468,1.5097
1.9094,432,1.3935
1.9137,407,1.3129
1.9181,426,1.3742
1.9223,457,1.4742
1.9266,457,1.4742
1.9309,420,1.3548
1.9352,408,1.3161
1.9395,440,1.4194
1.9438,460,1.4839
1.9481,443,1.4290
1.9524,415,1.3387
1.9567,420,1.3548
1.9610,460,1.4839
1.9653,469,1.5129
1.9696,434,1.4000
1.9739,412,1.3290
1.9782,436,1.4065
1.9825,474,1.5290
1.9867,480,1.5484
1.9911,443,1.4290
1.9955,427,1.3774
2.0001,451,1.4548
2.0044,459,1.4806
2.0088,430,1.3871
2.0131,405,1.3065
2.0174,417,1.3452
2.0218,451,1.4548
2.0261,456,1.4710
2.0304,420,1.3548
2.0348,403,1.3000
2.0391,430,1.3871
2.0434,449,1.4484
2.0477,433,1.3968
2.0521,392,1.2645
2.0564,382,1.2323
2.0607,414,1.3355
2.0651,428,1.3806
2.0694,427,1.3774
2.0737,472,1.5226
2.0781,574,1.8516
2.0824,718,2.3161
2.0868,847,2.7323
2.0912,927,2.9903
2.0955,994,3.2065
2.0998,999,3.2226
2.1041,977,3.1516
2.1084,825,2.6613
2.1127,647,2.0871
2.1170,529,1.7065
2.1213,463,1.4935
2.1256,406,1.3097
2.1299,353,1.1387
2.1342,334,1.0774
2.1385,357,1.1516
2.1428,389,1.2548
2.1471,386,1.2452
2.1513,350,1.1290
2.1556,341,1.1000
2.1599,377,1.2161
2.1642,396,1.2774
2.1685,376,1.2129
2.1728,350,1.1290
2.1771,356,1.1484
2.1814,393,1.2677
2.1857,403,1.3000
2.1901,364,1.1742
2.1944,346,1.1161
2.1987,373,1.2032
2.2031,405,1.3065
2.2074,404,1.3032
2.2118,373,1.2032
2.2161,372,1.2000
2.2204,409,1.3194
2.2248,423,1.3645
2.2291,400,1.2903
2.2334,380,1.2258
2.2377,393,1.2677
2.2421,426,1.3742
2.2464,432,1.3935
2.2507,400,1.2903
2.2551,391,1.2613
2.2594,425,1.3710
2.2637,446,1.4387
2.2681,430,1.3871
2.2724,405,1.3065
2.2767,414,1.3355
2.2810,452,1.4581
2.2854,465,1.5000
2.2897,441,1.4226
2.2942,431,1.3903
2.2986,461,1.4871
2.3029,493,1.5903
2.3073,491,1.5839
2.3116,458,1.4774
2.3159,457,1.4742
2.3203,496,1.6000
2.3245,518,1.6710
2.3288,504,1.6258
2.3331,485,1.5645
2.3374,492,1.5871
2.3417,524,1.6903
2.3460,528,1.7032
2.3503,495,1.5968
2.3546,482,1.5548
2.3589,506,1.6323
2.3632,521,1.6806
2.3675,500,1.6129
2.3718,450,1.4516
2.3761,434,1.4000
2.3804,459,1.4806
2.3846,465,1.5000
2.3889,429,1.3839
2.3933,393,1.2677
2.3976,400,1.2903
2.4020,428,1.3806
2.4063,426,1.3742
2.4107,385,1.2419
2.4150,366,1.1806
2.4193,393,1.2677
2.4237,414,1.3355
2.4280,401,1.2935
2.4324,369,1.1903
2.4367,372,1.2000
2.4410,410,1.3226
2.4454,421,1.3581
2.4497,394,1.2710
2.4540,377,1.2161
2.4584,402,1.2968
2.4627,432,1.3935
2.4670,431,1.3903
2.4714,396,1.2774
2.4757,389,1.2548
2.4801,425,1.3710
2.4844,445,1.4355
2.4887,422,1.3613
2.4930,396,1.2774
2.4975,407,1.3129
2.5018,442,1.4258
2.5061,447,1.4419
2.5104,411,1.3258
2.5147,397,1.2806
2.5190,423,1.3645
2.5233,447,1.4419
2.5276,439,1.4161
2.5319,403,1.3000
2.5362,399,1.2871
2.5404,433,1.3968
2.5447,446,1.4387
2.5490,421,1.3581
2.5533,400,1.2903
2.5576,410,1.3226
2.5619,440,1.4194
2.5662,443,1.4290
2.5705,407,1.3129
2.5748,394,1.2710
2.5791,423,1.3645
2.5834,451,1.4548
2.5876,446,1.4387
2.5919,413,1.3323
2.5963,412,1.3290
2.6006,450,1.4516
2.6050,464,1.4968
2.6093,434,1.4000
2.6136,410,1.3226
2.6180,423,1.3645
2.6223,459,1.4806
2.6266,461,1.4871
2.6309,425,1.3710
2.6353,416,1.3419
2.6396,449,1.4484
2.6439,472,1.5226
2.6483,456,1.4710
2.6526,424,1.3677
2.6569,425,1.3710
2.6613,463,1.4935
2.6656,475,1.5323
2.6699,444,1.4323
2.6742,428,1.3806
2.6786,452,1.4581
2.6829,483,1.5581
2.6872,477,1.5387
2.6915,439,1.4161
2.6959,433,1.3968
2.7004,470,1.5161
2.7047,487,1.5710
2.7090,463,1.4935
2.7133,440,1.4194
2.7176,457,1.4742
2.7219,495,1.5968
2.7262,498,1.6065
2.7305,458,1.4774
2.7348,446,1.4387
2.7391,479,1.5452
2.7434,515,1.6613
2.7476,512,1.6516
2.7519,474,1.5290
2.7562,464,1.4968
2.7605,494,1.5935
2.7648,501,1.6161
2.7691,471,1.5194
2.7734,444,1.4323
2.7777,454,1.4645
2.7820,494,1.5935
2.7863,505,1.6290
2.7906,470,1.5161
2.7948,453,1.4613
2.7992,480,1.5484
2.8035,499,1.6097
2.8078,482,1.5548
2.8122,442,1.4258
2.8165,433,1.3968
2.8209,459,1.4806
2.8252,476,1.5355
2.8295,473,1.5258
2.8338,509,1.6419
2.8382,609,1.9645
2.8426,752,2.4258
2.8469,895,2.8871
2.8512,990,3.1935
2.8555,1000,3.2258
2.8599,1002,3.2323
2.8642,1000,3.2258
2.8685,975,3.1452
2.8729,792,2.5548
2.8772,626,2.0194
2.8815,534,1.7226
2.8859,473,1.5258
2.8903,421,1.3581
2.8947,408,1.3161
2.8991,443,1.4290
2.9037,470,1.5161
2.9080,457,1.4742
2.9123,421,1.3581
2.9166,417,1.3452
2.9209,456,1.4710
2.9252,472,1.5226
2.9295,441,1.4226
2.9338,416,1.3419
2.9381,432,1.3935
2.9423,469,1.5129
2.9466,474,1.5290
2.9509,442,1.4258
2.9552,433,1.3968
2.9595,468,1.5097
2.9638,492,1.5871
2.9681,478,1.5419
2.9724,445,1.4355
2.9767,446,1.4387
2.9810,489,1.5774
2.9853,507,1.6355
2.9896,483,1.5581
2.9939,467,1.5065
2.9982,482,1.5548
3.0025,516,1.6645
3.0068,518,1.6710
3.0111,485,1.5645
3.0154,477,1.5387
3.0198,514,1.6581
3.0241,541,1.7452
3.0284,530,1.7097
3.0328,500,1.6129
3.0371,507,1.6355
3.0414,551,1.7774
3.0458,571,1.8419
3.0501,545,1.7581
3.0545,531,1.7129
3.0588,558,1.8000
3.0631,590,1.9032
3.0674,589,1.9000
3.0718,561,1.8097
3.0761,563,1.8161
3.0804,602,1.9419
3.0848,622,2.0065
3.0891,599,1.9323
3.0934,578,1.8645
3.0978,594,1.9161
3.1021,636,2.0516
3.1065,636,2.0516
3.1109,598,1.9290
3.1152,580,1.8710
3.1195,603,1.9452
3.1238,619,1.9968
3.1281,601,1.9387
3.1324,554,1.7871
3.1367,544,1.7548
3.1410,572,1.8452
3.1453,573,1.8484
3.1496,535,1.7258
3.1538,499,1.6097
3.1581,502,1.6194
3.1624,527,1.7000
3.1667,523,1.6871
3.1710,481,1.5516
3.1753,467,1.5065
3.1796,497,1.6032
3.1839,517,1.6677
3.1882,502,1.6194
3.1926,470,1.5161
3.1971,476,1.5355
3.2014,516,1.6645
3.2057,524,1.6903
3.2101,492,1.5871
3.2145,480,1.5484
3.2187,504,1.6258
3.2231,530,1.7097
3.2273,528,1.7032
3.2317,499,1.6097
3.2359,492,1.5871
3.2402,524,1.6903
3.2445,542,1.7484
3.2488,525,1.6935
3.2531,498,1.6065
3.2574,503,1.6226
3.2617,540,1.7419
3.2660,547,1.7645
3.2703,511,1.6484
3.2746,495,1.5968
3.2789,519,1.6742
3.2832,548,1.7677
3.2875,542,1.7484
3.2918,502,1.6194
3.2960,493,1.5903
3.3003,524,1.6903
3.3046,539,1.7387
3.3089,518,1.6710
3.3134,490,1.5806
3.3178,501,1.6161
3.3221,539,1.7387
3.3265,542,1.7484
3.3308,506,1.6323
3.3351,492,1.5871
3.3394,521,1.6806
3.3438,545,1.7581
3.3481,533,1.7194
3.3524,498,1.6065
3.3568,496,1.6000
3.3611,533,1.7194
3.3654,546,1.7613
3.3697,514,1.6581
3.3741,490,1.5806
3.3784,509,1.6419
3.3827,544,1.7548
3.3871,550,1.7742
3.3914,512,1.6516
3.3957,497,1.6032
3.4001,531,1.7129
3.4044,551,1.7774
3.4088,531,1.7129
3.4131,499,1.6097
3.4174,504,1.6258
3.4217,542,1.7484
3.4260,555,1.7903
3.4303,525,1.6935
3.4346,508,1.6387
3.4389,527,1.7000
3.4432,553,1.7839
3.4475,547,1.7645
3.4518,510,1.6452
3.4561,504,1.6258
3.4603,538,1.7355
3.4646,557,1.7968
3.4689,541,1.7452
3.4732,519,1.6742
3.4775,532,1.7161
3.4818,573,1.8484
3.4861,577,1.8613
3.4904,539,1.7387
3.4947,523,1.6871
3.4990,552,1.7806
3.5033,588,1.8968
3.5076,584,1.8839
3.5120,543,1.7516
3.5164,533,1.7194
3.5207,558,1.8000
3.5251,566,1.8258
3.5294,540,1.7419
3.5337,514,1.6581
3.5381,526,1.6968
3.5424,560,1.8065
3.5467,562,1.8129
3.5510,527,1.7000
3.5554,516,1.6645
3.5597,545,1.7581
3.5640,566,1.8258
3.5684,548,1.7677
3.5727,503,1.6226
3.5770,492,1.5871
3.5814,522,1.6839
3.5857,546,1.7613
3.5901,561,1.8097
3.5944,616,1.9871
3.5987,727,2.3452
3.6031,890,2.8710
3.6074,999,3.2226
3.6120,1000,3.2258
3.6163,1003,3.2355
3.6206,1003,3.2355
3.6249,1000,3.2258
3.6292,958,3.0903
3.6335,770,2.4839
3.6378,605,1.9516
3.6421,537,1.7323
3.6464,509,1.6419
3.6506,472,1.5226
3.6549,460,1.4839
3.6592,485,1.5645
3.6635,514,1.6581
3.6678,510,1.6452
3.6721,476,1.5355
3.6764,468,1.5097
3.6807,501,1.6161
3.6850,516,1.6645
3.6893,494,1.5935
3.6936,468,1.5097
3.6984,484,1.5613
3.7028,517,1.6677
3.7071,520,1.6774
3.7114,487,1.5710
3.7157,480,1.5484
3.7201,512,1.6516
3.7244,533,1.7194
3.7288,517,1.6677
3.7331,486,1.5677
3.7374,492,1.5871
3.7418,531,1.7129
3.7461,546,1.7613
3.7504,518,1.6710
3.7548,501,1.6161
3.7591,526,1.6968
3.7634,554,1.7871
3.7677,550,1.7742
3.7721,516,1.6645
3.7764,513,1.6548
3.7807,550,1.7742
3.7851,573,1.8484
3.7894,553,1.7839
3.7939,530,1.7097
3.7983,547,1.7645
3.8028,586,1.8903
3.8073,590,1.9032
3.8118,561,1.8097
3.8162,560,1.8065
3.8204,599,1.9323
3.8247,623,2.0097
3.8291,611,1.9710
3.8334,586,1.8903
3.8377,597,1.9258
3.8420,638,2.0581
3.8463,649,2.0935
3.8506,615,1.9839
3.8549,598,1.9290
3.8592,622,2.0065
3.8634,650,2.0968
3.8677,645,2.0806
3.8720,606,1.9548
3.8763,593,1.9129
3.8806,620,2.0000
3.8849,627,2.0226
3.8892,596,1.9226
3.8935,556,1.7935
3.8978,554,1.7871
3.9021,577,1.8613
3.9064,571,1.8419
3.9107,526,1.6968
3.9150,498,1.6065
3.9193,514,1.6581
3.9236,534,1.7226
3.9279,523,1.6871
3.9322,484,1.5613
3.9365,474,1.5290
3.9408,508,1.6387
3.9451,525,1.6935
3.9494,501,1.6161
3.9537,473,1.5258
3.9580,479,1.5452
3.9623,517,1.6677
3.9666,525,1.6935
3.9709,493,1.5903
3.9752,479,1.5452
3.9795,509,1.6419
3.9837,538,1.7355
3.9880,532,1.7161
3.9923,497,1.6032
3.9966,492,1.5871
4.0009,527,1.7000
4.0052,545,1.7581
4.0095,520,1.6774
4.0138,490,1.5806
4.0182,498,1.6065
4.0225,531,1.7129
4.0269,538,1.7355
4.0312,501,1.6161
4.0355,487,1.5710
4.0399,514,1.6581
4.0442,535,1.7258
4.0485,526,1.6968
4.0529,492,1.5871
4.0572,487,1.5710
4.0615,527,1.7000
4.0658,541,1.7452
4.0702,507,1.6355
4.0745,481,1.5516
4.0789,497,1.6032
4.0832,530,1.7097
4.0875,528,1.7032
4.0919,490,1.5806
4.0966,480,1.5484
4.1010,515,1.6613
4.1054,532,1.7161
4.1097,505,1.6290
4.1141,478,1.5419
4.1184,489,1.5774
4.1228,523,1.6871
4.1270,527,1.7000
4.1314,493,1.5903
4.1357,480,1.5484
4.1400,507,1.6355
4.1443,529,1.7065
4.1486,521,1.6806
4.1529,491,1.5839
4.1572,486,1.5677
4.1615,520,1.6774
4.1658,531,1.7129
4.1701,503,1.6226
4.1744,481,1.5516
4.1787,495,1.5968
4.1830,529,1.7065
4.1873,534,1.7226
4.1915,500,1.6129
4.1958,488,1.5742
4.2002,516,1.6645
4.2045,537,1.7323
4.2087,523,1.6871
4.2130,489,1.5774
4.2174,488,1.5742
4.2217,526,1.6968
4.2260,538,1.7355
4.2303,509,1.6419
4.2346,490,1.5806
4.2389,508,1.6387
4.2432,539,1.7387
4.2474,541,1.7452
4.2517,506,1.6323
4.2560,499,1.6097
4.2603,537,1.7323
4.2646,556,1.7935
4.2689,537,1.7323
4.2732,497,1.6032
4.2775,491,1.5839
4.2818,523,1.6871
4.2861,530,1.7097
4.2904,502,1.6194
4.2947,482,1.5548
4.2990,500,1.6129
4.3033,531,1.7129
4.3076,531,1.7129
4.3118,497,1.6032
4.3161,488,1.5742
4.3205,519,1.6742
4.3248,532,1.7161
4.3291,506,1.6323
4.3335,463,1.4935
4.3378,463,1.4935
4.3422,510,1.6452
4.3465,554,1.7871
4.3508,589,1.9000
4.3551,663,2.1387
4.3595,809,2.6097
4.3638,961,3.1000
4.3681,1000,3.2258
4.3725,999,3.2226
4.3768,1000,3.2258
4.3811,988,3.1871
4.3855,880,2.8387
4.3898,718,2.3161
4.3941,577,1.8613
4.3984,491,1.5839
4.4028,466,1.5032
4.4071,450,1.4516
4.4116,417,1.3452
4.4159,412,1.3290
4.4202,448,1.4452
4.4246,472,1.5226
4.4289,462,1.4903
4.4332,431,1.3903
4.4375,431,1.3903
4.4418,468,1.5097
4.4461,483,1.5581
4.4504,451,1.4548
4.4547,429,1.3839
4.4590,447,1.4419
4.4633,484,1.5613
4.4676,490,1.5806
4.4718,459,1.4806
4.4761,449,1.4484
4.4804,479,1.5452
4.4847,498,1.6065
4.4890,483,1.5581
4.4933,454,1.4645
4.4976,460,1.4839
4.5019,499,1.6097
4.5062,511,1.6484
4.5105,485,1.5645
4.5148,466,1.5032
4.5191,482,1.5548
4.5234,513,1.6548
4.5278,515,1.6613
4.5321,485,1.5645
4.5364,485,1.5645
4.5408,524,1.6903
4.5451,544,1.7548
4.5494,523,1.6871
4.5538,498,1.6065
4.5581,508,1.6387
4.5624,552,1.7806
4.5668,566,1.8258
4.5711,538,1.7355
4.5754,526,1.6968
4.5797,557,1.7968
4.5841,588,1.8968
4.5884,584,1.8839
4.5927,555,1.7903
4.5971,553,1.7839
4.6014,591,1.9065
4.6057,612,1.9742
4.6101,586,1.8903
4.6144,562,1.8129
4.6187,574,1.8516
4.6230,611,1.9710
4.6273,614,1.9806
4.6316,580,1.8710
4.6359,562,1.8129
4.6402,578,1.8645
4.6445,585,1.8871
4.6488,560,1.8065
4.6530,518,1.6710
4.6573,506,1.6323
4.6615,530,1.7097
4.6658,532,1.7161
4.6701,496,1.6000
4.6743,463,1.4935
4.6786,469,1.5129
4.6828,500,1.6129
4.6871,503,1.6226
4.6914,466,1.5032
4.6958,450,1.4516
4.7002,477,1.5387
4.7045,498,1.6065
4.7088,486,1.5677
4.7131,454,1.4645
4.7174,454,1.4645
4.7216,491,1.5839
4.7259,508,1.6387
4.7302,482,1.5548
4.7345,459,1.4806
4.7388,472,1.5226
4.7431,507,1.6355
4.7474,514,1.6581
4.7517,479,1.5452
4.7560,463,1.4935
4.7603,492,1.5871
4.7646,517,1.6677
4.7689,509,1.6419
4.7732,477,1.5387
4.7775,477,1.5387
4.7818,514,1.6581
4.7861,525,1.6935
4.7904,491,1.5839
4.7947,466,1.5032
4.7990,479,1.5452
4.8033,512,1.6516
4.8076,514,1.6581
4.8121,474,1.5290
4.8165,464,1.4968
4.8208,499,1.6097
4.8251,521,1.6806
4.8294,502,1.6194
4.8337,467,1.5065
4.8380,466,1.5032
4.8422,501,1.6161
4.8465,511,1.6484
4.8507,480,1.5484
4.8550,457,1.4742
4.8592,475,1.5323
4.8635,508,1.6387
4.8677,511,1.6484
4.8720,476,1.5355
4.8762,462,1.4903
4.8805,489,1.5774
4.8848,511,1.6484
4.8890,502,1.6194
4.8933,471,1.5194
4.8975,472,1.5226
4.9018,509,1.6419
4.9060,517,1.6677
4.9103,487,1.5710
4.9146,465,1.5000
4.9189,480,1.5484
4.9231,518,1.6710
4.9273,521,1.6806
4.9317,483,1.5581
4.9360,471,1.5194
4.9403,499,1.6097
4.9446,522,1.6839
4.9489,511,1.6484
4.9532,476,1.5355
4.9575,474,1.5290
4.9617,511,1.6484
4.9660,524,1.6903
4.9703,498,1.6065
4.9746,476,1.5355
4.9789,490,1.5806
4.9831,525,1.6935
4.9875,534,1.7226
4.9918,501,1.6161
4.9962,489,1.5774
5.0012,523,1.6871
5.0056,539,1.7387
5.0128,505,1.6290
5.0173,506,1.6323
5.0218,541,1.7452
5.0262,550,1.7742
5.0308,510,1.6452
5.0352,478,1.5419
5.0395,491,1.5839
5.0438,521,1.6806
5.0480,522,1.6839
5.0522,490,1.5806
5.0567,481,1.5516
5.0612,521,1.6806
5.0654,541,1.7452
5.0696,519,1.6742
5.0739,483,1.5581
5.0789,482,1.5548
5.0831,507,1.6355
5.0873,501,1.6161
5.0916,460,1.4839
5.0958,444,1.4323
5.1002,494,1.5935
5.1044,576,1.8581
5.1087,648,2.0903
5.1129,711,2.2935
5.1171,840,2.7097
5.1214,996,3.2129
5.1256,1001,3.2290
5.1298,1003,3.2355
5.1342,1001,3.2290
5.1384,998,3.2194
5.1427,930,3.0000
5.1470,760,2.4516
5.1513,572,1.8452
5.1555,456,1.4710
5.1598,442,1.4258
5.1641,468,1.5097
5.1684,471,1.5194
5.1726,440,1.4194
5.1774,434,1.4000
5.1817,467,1.5065
5.1860,478,1.5419
5.1903,451,1.4548
5.1946,430,1.3871
5.1988,444,1.4323
5.2031,480,1.5484
5.2074,483,1.5581
5.2116,447,1.4419
5.2159,433,1.3968
5.2202,460,1.4839
5.2245,486,1.5677
5.2287,484,1.5613
5.2330,452,1.4581
5.2373,451,1.4548
5.2416,487,1.5710
5.2459,505,1.6290
5.2502,484,1.5613
5.2544,459,1.4806
5.2587,470,1.5161
5.2636,511,1.6484
5.2679,516,1.6645
5.2721,481,1.5516
5.2764,474,1.5290
5.2807,510,1.6452
5.2849,534,1.7226
5.2892,523,1.6871
5.2935,495,1.5968
5.2978,497,1.6032
5.3020,534,1.7226
5.3063,553,1.7839
5.3106,529,1.7065
5.3149,508,1.6387
5.3192,526,1.6968
5.3234,566,1.8258
5.3277,578,1.8645
5.3320,548,1.7677
5.3366,538,1.7355
5.3415,579,1.8677
5.3457,600,1.9355
5.3500,585,1.8871
5.3543,565,1.8226
5.3586,574,1.8516
5.3629,613,1.9774
5.3672,623,2.0097
5.3714,592,1.9097
5.3757,578,1.8645
5.3799,601,1.9387
5.3842,626,2.0194
5.3885,615,1.9839
5.3928,571,1.8419
5.3971,558,1.8000
5.4013,585,1.8871
5.4056,589,1.9000
5.4099,555,1.7903
5.4142,514,1.6581
5.4184,508,1.6387
5.4231,539,1.7387
5.4274,535,1.7258
5.4316,489,1.5774
5.4359,463,1.4935
5.4402,480,1.5484
5.4445,504,1.6258
5.4488,497,1.6032
5.4530,463,1.4935
5.4573,457,1.4742
5.4615,494,1.5935
5.4658,513,1.6548
5.4701,493,1.5903
5.4744,468,1.5097
5.4786,477,1.5387
5.4829,516,1.6645
5.4875,520,1.6774
5.4918,484,1.5613
5.4961,469,1.5129
5.5003,498,1.6065
5.5046,528,1.7032
5.5089,528,1.7032
5.5132,491,1.5839
5.5174,481,1.5516
5.5217,514,1.6581
5.5259,530,1.7097
5.5302,508,1.6387
5.5345,483,1.5581
5.5388,491,1.5839
5.5431,526,1.6968
5.5473,530,1.7097
5.5516,496,1.6000
5.5559,480,1.5484
5.5666,530,1.7097
5.5710,500,1.6129
5.5752,478,1.5419
5.5795,491,1.5839
5.5838,521,1.6806
5.5882,523,1.6871
5.5925,485,1.5645
5.5969,475,1.5323
5.6013,508,1.6387
5.6056,529,1.7065
5.6099,509,1.6419
5.6142,482,1.5548
5.6184,486,1.5677
5.6226,516,1.6645
5.6269,522,1.6839
5.6311,493,1.5903
5.6354,474,1.5290
5.6397,493,1.5903
5.6440,525,1.6935
5.6483,525,1.6935
5.6526,488,1.5742
5.6568,478,1.5419
5.6611,509,1.6419
5.6653,528,1.7032
5.6696,512,1.6516
5.6739,480,1.5484
5.6783,483,1.5581
5.6825,523,1.6871
5.6868,534,1.7226
5.6910,503,1.6226
5.6953,482,1.5548
5.6996,499,1.6097
5.7038,531,1.7129
5.7081,531,1.7129
5.7124,495,1.5968
5.7167,482,1.5548
5.7209,513,1.6548
5.7252,534,1.7226
5.7294,521,1.6806
5.7337,491,1.5839
5.7379,497,1.6032
5.7422,541,1.7452
5.7465,555,1.7903
5.7507,526,1.6968
5.7550,500,1.6129
5.7593,514,1.6581
5.7635,551,1.7774
5.7678,562,1.8129
5.7720,530,1.7097
5.7763,513,1.6548
5.7806,531,1.7129
5.7848,546,1.7613
5.7891,530,1.7097
5.7938,493,1.5903
5.7981,492,1.5871
5.8024,527,1.7000
5.8066,541,1.7452
5.8108,512,1.6516
5.8151,491,1.5839
5.8194,507,1.6355
5.8236,540,1.7419
5.8279,539,1.7387
5.8322,496,1.6000
5.8365,471,1.5194
5.8407,489,1.5774
5.8450,509,1.6419
5.8492,512,1.6516
5.8535,516,1.6645
5.8578,581,1.8742
5.8621,708,2.2839
5.8663,846,2.7290
5.8705,964,3.1097
5.8748,1000,3.2258
5.8791,1001,3.2290
5.8834,1002,3.2323
5.8877,1001,3.2290
5.8919,954,3.0774
5.8963,761,2.4548
5.9007,616,1.9871
5.9051,531,1.7129
5.9093,480,1.5484
5.9141,437,1.4097
5.9184,441,1.4226
5.9227,481,1.5516
5.9269,496,1.6000
5.9311,467,1.5065
5.9354,442,1.4258
5.9398,456,1.4710
5.9440,489,1.5774
5.9483,492,1.5871
5.9526,460,1.4839
5.9569,448,1.4452
5.9612,475,1.5323
5.9654,494,1.5935
5.9697,483,1.5581
5.9739,456,1.4710
5.9782,462,1.4903
5.9825,497,1.6032
5.9868,508,1.6387
5.9913,483,1.5581
5.9957,465,1.5000
6.0000,482,1.5548
6.0042,514,1.6581
6.0085,517,1.6677
6.0127,488,1.5742
6.0170,481,1.5516
6.0213,514,1.6581
6.0256,533,1.7194
6.0298,519,1.6742
6.0340,488,1.5742
6.0383,492,1.5871
6.0426,533,1.7194
6.0469,551,1.7774
6.0511,527,1.7000
6.0554,508,1.6387
6.0596,528,1.7032
6.0639,566,1.8258
6.0682,572,1.8452
6.0724,541,1.7452
6.0767,535,1.7258
6.0814,570,1.8387
6.0857,594,1.9161
6.0899,586,1.8903
6.0942,561,1.8097
6.0985,568,1.8323
6.1028,609,1.9645
6.1070,623,2.0097
6.1113,595,1.9194
6.1155,578,1.8645
6.1198,596,1.9226
6.1241,630,2.0323
6.1283,631,2.0355
6.1326,594,1.9161
6.1368,580,1.8710
6.1411,605,1.9516
6.1454,620,2.0000
6.1497,597,1.9258
6.1539,551,1.7774
6.1581,534,1.7226
6.1629,563,1.8161
6.1671,562,1.8129
6.1714,523,1.6871
6.1756,490,1.5806
6.1799,497,1.6032
6.1842,520,1.6774
6.1885,513,1.6548
6.1927,475,1.5323
6.1970,461,1.4871
6.2013,489,1.5774
6.2056,509,1.6419
6.2099,493,1.5903
6.2142,463,1.4935
6.2184,467,1.5065
6.2227,506,1.6323
6.2270,520,1.6774
6.2312,496,1.6000
6.2355,475,1.5323
6.2397,490,1.5806
6.2445,527,1.7000
6.2488,524,1.6903
6.2531,488,1.5742
6.2574,481,1.5516
6.2616,512,1.6516
6.2659,532,1.7161
6.2702,515,1.6613
6.2745,485,1.5645
6.2787,488,1.5742
6.2830,526,1.6968
6.2873,538,1.7355
6.2915,509,1.6419
6.2958,486,1.5677
6.3001,501,1.6161
6.3044,527,1.7000
6.3087,526,1.6968
6.3130,492,1.5871
6.3173,479,1.5452
6.3219,511,1.6484
6.3262,526,1.6968
6.3305,503,1.6226
6.3347,475,1.5323
6.3390,481,1.5516
6.3434,517,1.6677
6.3478,522,1.6839
6.3520,488,1.5742
6.3563,471,1.5194
6.3606,495,1.5968
6.3648,520,1.6774
6.3691,514,1.6581
6.3734,480,1.5484
6.3777,473,1.5258
6.3819,508,1.6387
6.3862,524,1.6903
6.3905,505,1.6290
6.3948,480,1.5484
6.3991,487,1.5710
6.4034,521,1.6806
6.4077,527,1.7000
6.4120,492,1.5871
6.4162,472,1.5226
6.4205,494,1.5935
6.4248,519,1.6742
6.4291,515,1.6613
6.4334,482,1.5548
6.4376,476,1.5355
6.4419,511,1.6484
6.4462,527,1.7000
6.4505,509,1.6419
6.4547,482,1.5548
6.4590,487,1.5710
6.4633,521,1.6806
6.4675,527,1.7000
6.4718,493,1.5903
6.4761,474,1.5290
6.4804,498,1.6065
6.4846,538,1.7355
6.4894,535,1.7258
6.4937,498,1.6065
6.4981,491,1.5839
6.5028,530,1.7097
6.5071,548,1.7677
6.5114,529,1.7065
6.5156,506,1.6323
6.5199,514,1.6581
6.5241,541,1.7452
6.5284,533,1.7194
6.5326,492,1.5871
6.5369,477,1.5387
6.5411,509,1.6419
6.5454,531,1.7129
6.5497,518,1.6710
6.5540,484,1.5613
6.5583,483,1.5581
6.5625,518,1.6710
6.5670,535,1.7258
6.5713,509,1.6419
6.5756,482,1.5548
6.5798,483,1.5581
6.5841,502,1.6194
6.5884,500,1.6129
6.5929,469,1.5129
6.5975,494,1.5935
6.6018,594,1.9161
6.6060,702,2.2645
6.6103,810,2.6129
6.6146,921,2.9710
6.6189,999,3.2226
6.6231,1003,3.2355
6.6274,1003,3.2355
6.6316,999,3.2226
6.6359,917,2.9581
6.6402,760,2.4516
6.6444,641,2.0677
6.6487,529,1.7065
6.6530,438,1.4129
6.6573,415,1.3387
6.6615,448,1.4452
6.6658,478,1.5419
6.6701,469,1.5129
6.6744,438,1.4129
6.6786,438,1.4129
6.6828,472,1.5226
6.6871,482,1.5548
6.6914,453,1.4613
6.6957,431,1.3903
6.7004,451,1.4548
6.7046,483,1.5581
6.7089,485,1.5645
6.7131,449,1.4484
6.7174,437,1.4097
6.7217,471,1.5194
6.7260,494,1.5935
6.7302,483,1.5581
6.7345,454,1.4645
6.7388,458,1.4774
6.7430,497,1.6032
6.7473,509,1.6419
6.7515,482,1.5548
6.7558,463,1.4935
6.7601,478,1.5419
6.7644,509,1.6419
6.7686,514,1.6581
6.7729,484,1.5613
6.7772,477,1.5387
6.7815,508,1.6387
6.7857,534,1.7226
6.7901,522,1.6839
6.7946,492,1.5871
6.7989,496,1.6000
6.8033,540,1.7419
6.8076,556,1.7935
6.8122,532,1.7161
6.8166,520,1.6774
6.8208,549,1.7710
6.8251,579,1.8677
6.8294,581,1.8742
6.8336,552,1.7806
6.8379,546,1.7613
6.8421,580,1.8710
6.8464,603,1.9452
6.8507,591,1.9065
6.8550,568,1.8323
6.8593,578,1.8645
6.8635,612,1.9742
6.8678,622,2.0065
6.8720,592,1.9097
6.8764,575,1.8548
6.8807,595,1.9194
6.8849,615,1.9839
6.8892,601,1.9387
6.8936,554,1.7871
6.8979,535,1.7258
6.9021,557,1.7968
6.9064,563,1.8161
6.9106,529,1.7065
6.9149,483,1.5581
6.9192,473,1.5258
6.9234,497,1.6032
6.9277,501,1.6161
6.9319,465,1.5000
6.9361,442,1.4258
6.9404,457,1.4742
6.9447,487,1.5710
6.9489,484,1.5613
6.9532,450,1.4516
6.9575,443,1.4290
6.9618,476,1.5355
6.9661,497,1.6032
6.9703,484,1.5613
6.9746,456,1.4710
6.9789,458,1.4774
6.9832,494,1.5935
6.9875,508,1.6387
6.9917,480,1.5484
6.9961,459,1.4806
7.0004,476,1.5355
7.0047,505,1.6290
7.0089,506,1.6323
7.0132,471,1.5194
7.0175,462,1.4903
7.0218,496,1.6000
7.0261,514,1.6581
7.0303,499,1.6097
7.0346,468,1.5097
7.0389,468,1.5097
7.0432,502,1.6194
7.0475,512,1.6516
7.0517,482,1.5548
7.0560,459,1.4806
7.0603,472,1.5226
7.0645,501,1.6161
7.0688,502,1.6194
7.0731,468,1.5097
7.0774,457,1.4742
7.0817,486,1.5677
7.0860,502,1.6194
7.0903,485,1.5645
7.0946,453,1.4613
7.0989,452,1.4581
7.1032,492,1.5871
7.1075,505,1.6290
7.1118,474,1.5290
7.1161,450,1.4516
7.1204,465,1.5000
7.1247,498,1.6065
7.1290,500,1.6129
7.1333,464,1.4968
7.1376,451,1.4548
7.1419,480,1.5484
7.1462,502,1.6194
7.1505,487,1.5710
7.1548,456,1.4710
7.1591,455,1.4677
7.1634,491,1.5839
7.1677,501,1.6161
7.1720,469,1.5129
7.1762,449,1.4484
7.1805,471,1.5194
7.1848,504,1.6258
7.1891,501,1.6161
7.1934,463,1.4935
7.1977,455,1.4677
7.2020,491,1.5839
7.2063,516,1.6645
7.2106,499,1.6097
7.2149,471,1.5194
7.2192,481,1.5516
7.2235,527,1.7000
7.2278,548,1.7677
7.2321,519,1.6742
7.2364,494,1.5935
7.2407,506,1.6323
7.2450,526,1.6968
7.2494,514,1.6581
7.2538,465,1.5000
7.2581,449,1.4484
7.2624,482,1.5548
7.2668,501,1.6161
7.2711,476,1.5355
7.2754,448,1.4452
7.2798,455,1.4677
7.2841,491,1.5839
7.2885,501,1.6161
7.2928,466,1.5032
7.2971,448,1.4452
7.3015,470,1.5161
7.3058,486,1.5677
7.3103,461,1.4871
7.3146,421,1.3581
7.3189,424,1.3677
7.3232,490,1.5806
7.3276,561,1.8097
7.3319,616,1.9871
7.3362,710,2.2903
7.3406,854,2.7548
7.3449,990,3.1935
7.3493,999,3.2226
7.3536,998,3.2194
7.3579,959,3.0935
7.3622,856,2.7613
7.3665,735,2.3710
7.3708,605,1.9516
7.3751,482,1.5548
7.3794,411,1.3258
7.3837,415,1.3387
7.3880,420,1.3548
7.3923,393,1.2677
7.3984,385,1.2419
7.4028,424,1.3677
7.4071,440,1.4194
7.4114,417,1.3452
7.4157,394,1.2710
7.4204,410,1.3226
7.4247,439,1.4161
7.4290,440,1.4194
7.4333,405,1.3065
7.4375,394,1.2710
7.4418,427,1.3774
7.4460,449,1.4484
7.4504,440,1.4194
7.4546,414,1.3355
7.4589,415,1.3387
7.4632,450,1.4516
7.4674,462,1.4903
7.4717,437,1.4097
7.4760,414,1.3355
7.4802,429,1.3839
7.4845,466,1.5032
7.4887,473,1.5258
7.4930,437,1.4097
7.4973,421,1.3581
7.5016,449,1.4484
7.5060,475,1.5323
7.5103,465,1.5000
7.5146,437,1.4097
7.5188,440,1.4194
7.5231,480,1.5484
7.5273,499,1.6097
7.5316,478,1.5419
7.5359,457,1.4742
7.5402,468,1.5097
7.5444,503,1.6226
7.5487,514,1.6581
7.5530,485,1.5645
7.5573,476,1.5355
7.5616,509,1.6419
7.5658,538,1.7355
7.5701,532,1.7161
7.5744,502,1.6194
7.5786,500,1.6129
7.5829,536,1.7290
7.5871,551,1.7774
7.5914,524,1.6903
7.5957,500,1.6129
7.6000,511,1.6484
7.6042,543,1.7516
7.6085,543,1.7516
7.6128,501,1.6161
7.6171,478,1.5419
7.6213,493,1.5903
7.6256,507,1.6355
7.6298,487,1.5710
7.6341,440,1.4194
7.6384,423,1.3645
7.6426,447,1.4419
7.6469,455,1.4677
7.6512,421,1.3581
7.6555,384,1.2387
7.6598,387,1.2484
7.6640,418,1.3484
7.6683,421,1.3581
7.6725,384,1.2387
7.6768,365,1.1774
7.6811,390,1.2581
7.6854,418,1.3484
7.6900,410,1.3226
7.6946,377,1.2161
7.6991,384,1.2387
7.7036,422,1.3613
7.7079,436,1.4065
7.7121,403,1.3000
7.7165,377,1.2161
7.7208,392,1.2645
7.7250,421,1.3581
7.7293,422,1.3613
7.7335,389,1.2548
7.7378,380,1.2258
7.7421,412,1.3290
7.7463,431,1.3903
7.7506,417,1.3452
7.7548,385,1.2419
7.7592,385,1.2419
7.7634,420,1.3548
7.7677,431,1.3903
7.7719,400,1.2903
7.7762,376,1.2129
7.7805,390,1.2581
7.7848,421,1.3581
7.7890,420,1.3548
7.7933,382,1.2323
7.7976,368,1.1871
7.8018,397,1.2806
7.8061,418,1.3484
7.8103,406,1.3097
7.8146,371,1.1968
7.8189,370,1.1935
7.8232,407,1.3129
7.8275,418,1.3484
7.8317,384,1.2387
7.8360,357,1.1516
7.8403,369,1.1903
7.8445,400,1.2903
7.8488,405,1.3065
7.8533,370,1.1935
7.8576,357,1.1516
7.8619,388,1.2516
7.8662,410,1.3226
7.8704,398,1.2839
7.8747,363,1.1710
7.8790,364,1.1742
7.8832,401,1.2935
7.8875,417,1.3452
7.8917,388,1.2516
7.8960,362,1.1677
7.9003,373,1.2032
7.9046,410,1.3226
7.9089,420,1.3548
7.9131,393,1.2677
7.9174,382,1.2323
7.9217,409,1.3194
7.9260,434,1.4000
7.9303,426,1.3742
7.9348,399,1.2871
7.9391,407,1.3129
7.9434,446,1.4387
7.9476,451,1.4548
7.9519,413,1.3323
7.9562,382,1.2323
7.9605,385,1.2419
7.9647,410,1.3226
7.9690,406,1.3097
7.9733,368,1.1871
7.9775,357,1.1516
7.9818,386,1.2452
7.9861,408,1.3161
7.9904,397,1.2806
7.9946,364,1.1742
7.9989,361,1.1645
8.0032,396,1.2774
8.0075,406,1.3097
8.0117,371,1.1968
8.0164,335,1.0806
8.0207,341,1.1000
8.0250,366,1.1806
8.0293,373,1.2032
8.0335,373,1.2032
8.0378,432,1.3935
8.0421,555,1.7903
8.0464,694,2.2387
8.0506,824,2.6581
8.0550,925,2.9839
8.0594,997,3.2161
8.0637,999,3.2226
8.0680,957,3.0871
8.0723,769,2.4806
8.0766,586,1.8903
8.0809,468,1.5097
8.0852,401,1.2935
8.0895,355,1.1452
8.0938,309,0.9968
8.0981,302,0.9742
8.1024,341,1.1000
8.1067,366,1.1806
8.1110,347,1.1194
8.1153,316,1.0194
8.1196,317,1.0226
8.1239,357,1.1516
8.1282,369,1.1903
8.1324,336,1.0839
8.1367,318,1.0258
8.1410,341,1.1000
8.1453,373,1.2032
8.1496,370,1.1935
8.1539,337,1.0871
8.1582,331,1.0677
8.1625,365,1.1774
8.1669,385,1.2419
8.1711,369,1.1903
8.1754,342,1.1032
8.1797,351,1.1323
8.1840,392,1.2645
8.1883,404,1.3032
8.1926,372,1.2000
8.1969,359,1.1581
8.2012,383,1.2355
8.2055,413,1.3323
8.2098,412,1.3290
8.2141,380,1.2258
8.2184,378,1.2194
8.2227,417,1.3452
8.2270,440,1.4194
8.2313,423,1.3645
8.2356,400,1.2903
8.2399,411,1.3258
8.2443,455,1.4677
8.2486,467,1.5065
8.2529,438,1.4129
8.2572,428,1.3806
8.2615,460,1.4839
8.2658,492,1.5871
8.2701,491,1.5839
8.2744,460,1.4839
8.2787,458,1.4774
8.2830,501,1.6161
8.2873,523,1.6871
8.2916,501,1.6161
8.2961,478,1.5419
8.3004,492,1.5871
8.3049,528,1.7032
8.3092,532,1.7161
8.3135,494,1.5935
8.3178,480,1.5484
8.3221,507,1.6355
8.3265,519,1.6742
8.3308,493,1.5903
8.3351,451,1.4548
8.3394,442,1.4258
8.3437,467,1.5065
8.3480,466,1.5032
8.3523,426,1.3742
8.3566,398,1.2839
8.3610,409,1.3194
8.3653,433,1.3968
8.3696,428,1.3806
8.3739,392,1.2645
8.3782,382,1.2323
8.3825,416,1.3419
8.3868,434,1.4000
8.3911,416,1.3419
8.3954,387,1.2484
8.3997,395,1.2742
8.4039,436,1.4065
8.4083,448,1.4452
8.4126,418,1.3484
8.4169,403,1.3000
8.4212,427,1.3774
8.4255,461,1.4871
8.4298,460,1.4839
8.4341,426,1.3742
8.4384,420,1.3548
8.4427,456,1.4710
8.4470,474,1.5290
8.4513,455,1.4677
8.4556,429,1.3839
8.4599,437,1.4097
8.4642,473,1.5258
8.4685,480,1.5484
8.4728,447,1.4419
8.4771,431,1.3903
8.4814,456,1.4710
8.4857,486,1.5677
8.4901,481,1.5516
8.4944,444,1.4323
8.4987,436,1.4065
8.5030,470,1.5161
8.5072,486,1.5677
8.5116,463,1.4935
8.5159,437,1.4097
8.5202,448,1.4452
8.5245,483,1.5581
8.5288,488,1.5742
8.5331,454,1.4645
8.5374,440,1.4194
8.5417,470,1.5161
8.5460,495,1.5968
8.5503,487,1.5710
8.5546,452,1.4581
8.5589,446,1.4387
8.5632,484,1.5613
8.5675,501,1.6161
8.5718,473,1.5258
8.5761,449,1.4484
8.5804,459,1.4806
8.5847,495,1.5968
8.5890,502,1.6194
8.5933,471,1.5194
8.5988,460,1.4839
8.6032,500,1.6129
8.6075,516,1.6645
8.6119,492,1.5871
8.6164,474,1.5290
8.6208,496,1.6000
8.6251,532,1.7161
8.6296,531,1.7129
8.6340,499,1.6097
8.6382,498,1.6065
8.6427,541,1.7452
8.6471,567,1.8290
8.6515,547,1.7645
8.6558,514,1.6581
8.6601,514,1.6581
8.6645,542,1.7484
8.6688,540,1.7419
8.6731,502,1.6194
8.6774,480,1.5484
8.6817,505,1.6290
8.6860,531,1.7129
8.6903,525,1.6935
8.6946,486,1.5677
8.6989,481,1.5516
8.7032,519,1.6742
8.7075,537,1.7323
8.7118,513,1.6548
8.7162,485,1.5645
8.7206,492,1.5871
8.7249,518,1.6710
8.7292,512,1.6516
8.7335,467,1.5065
8.7378,457,1.4742
8.7421,513,1.6548
8.7464,598,1.9290
8.7507,670,2.1613
8.7551,746,2.4065
8.7594,887,2.8613
8.7638,1001,3.2290
8.7681,1002,3.2323
8.7723,1003,3.2355
8.7767,1001,3.2290
8.7810,986,3.1806
8.7852,853,2.7516
8.7895,682,2.2000
8.7938,516,1.6645
8.7981,444,1.4323
8.8024,466,1.5032
8.8067,492,1.5871
8.8110,480,1.5484
8.8153,451,1.4548
8.8197,456,1.4710
8.8239,499,1.6097
8.8282,511,1.6484
8.8325,477,1.5387
8.8369,454,1.4645
8.8411,473,1.5258
8.8454,507,1.6355
8.8497,509,1.6419
8.8540,478,1.5419
8.8583,471,1.5194
8.8626,505,1.6290
8.8669,525,1.6935
8.8712,514,1.6581
8.8755,487,1.5710
8.8798,491,1.5839
8.8841,529,1.7065
8.8884,541,1.7452
8.8927,513,1.6548
8.8971,497,1.6032
8.9014,521,1.6806
8.9056,554,1.7871
8.9099,557,1.7968
8.9142,524,1.6903
8.9186,516,1.6645
8.9229,551,1.7774
8.9271,572,1.8452
8.9314,557,1.7968
8.9357,531,1.7129
8.9401,541,1.7452
8.9444,582,1.8774
8.9487,594,1.9161
8.9530,566,1.8258
8.9573,554,1.7871
8.9616,584,1.8839
8.9659,619,1.9968
8.9702,620,2.0000
8.9745,591,1.9065
8.9789,587,1.8935
8.9832,627,2.0226
8.9874,649,2.0935
8.9917,631,2.0355
8.9960,608,1.9613
9.0003,621,2.0032
9.0046,661,2.1323
9.0089,669,2.1581
9.0132,635,2.0484
9.0175,615,1.9839
9.0218,639,2.0613
9.0261,666,2.1484
9.0304,653,2.1065
9.0347,611,1.9710
9.0390,597,1.9258
9.0433,618,1.9935
9.0476,620,2.0000
9.0519,583,1.8806
9.0562,542,1.7484
9.0605,543,1.7516
9.0648,571,1.8419
9.0692,571,1.8419
9.0734,531,1.7129
9.0778,510,1.6452
9.0821,533,1.7194
9.0864,555,1.7903
9.0907,544,1.7548
9.0950,508,1.6387
9.0993,509,1.6419
9.1036,550,1.7742
9.1079,565,1.8226
9.1122,541,1.7452
9.1165,518,1.6710
9.1208,531,1.7129
9.1252,566,1.8258
9.1295,569,1.8355
9.1338,538,1.7355
9.1381,528,1.7032
9.1424,558,1.8000
9.1467,582,1.8774
9.1510,571,1.8419
9.1553,538,1.7355
9.1596,537,1.7323
9.1640,572,1.8452
9.1683,585,1.8871
9.1726,556,1.7935
9.1768,534,1.7226
9.1811,550,1.7742
9.1854,585,1.8871
9.1897,584,1.8839
9.1942,545,1.7581
9.1990,536,1.7290
9.2034,571,1.8419
9.2078,588,1.8968
9.2121,561,1.8097
9.2164,535,1.7258
9.2207,546,1.7613
9.2250,578,1.8645
9.2293,580,1.8710
9.2336,545,1.7581
9.2379,529,1.7065
9.2422,559,1.8032
9.2465,584,1.8839
9.2508,575,1.8548
9.2550,538,1.7355
9.2594,531,1.7129
9.2637,564,1.8194
9.2680,579,1.8677
9.2723,554,1.7871
9.2770,530,1.7097
9.2813,545,1.7581
9.2856,575,1.8548
9.2899,573,1.8484
9.2942,537,1.7323
9.2985,529,1.7065
9.3028,561,1.8097
9.3071,581,1.8742
9.3114,563,1.8161
9.3157,532,1.7161
9.3200,536,1.7290
9.3243,573,1.8484
9.3287,584,1.8839
9.3330,554,1.7871
9.3372,539,1.7387
9.3415,560,1.8065
9.3458,592,1.9097
9.3502,592,1.9097
9.3544,560,1.8065
9.3587,550,1.7742
9.3630,588,1.8968
9.3674,614,1.9806
9.3717,599,1.9323
9.3760,578,1.8645
9.3803,585,1.8871
9.3846,614,1.9806
9.3889,616,1.9871
9.3932,576,1.8581
9.3975,546,1.7613
9.4018,561,1.8097
9.4061,584,1.8839
9.4104,581,1.8742
9.4147,542,1.7484
9.4190,533,1.7194
9.4233,566,1.8258
9.4276,585,1.8871
9.4319,561,1.8097
9.4362,534,1.7226
9.4405,539,1.7387
9.4448,573,1.8484
9.4491,573,1.8484
9.4534,532,1.7161
9.4577,505,1.6290
9.4620,522,1.6839
9.4663,550,1.7742
9.4707,578,1.8645
9.4750,606,1.9548
9.4793,686,2.2129
9.4837,839,2.7065
9.4880,986,3.1806
9.4924,999,3.2226
9.4968,1002,3.2323
9.5013,1002,3.2323
9.5057,1000,3.2258
9.5102,979,3.1581
9.5146,800,2.5806
9.5190,636,2.0516
9.5233,556,1.7935
9.5276,521,1.6806
9.5320,489,1.5774
9.5363,466,1.5032
9.5407,480,1.5484
9.5450,523,1.6871
9.5493,532,1.7161
9.5537,497,1.6032
9.5580,480,1.5484
9.5623,504,1.6258
9.5667,528,1.7032
9.5710,521,1.6806
9.5753,492,1.5871
9.5796,489,1.5774
9.5839,524,1.6903
9.5882,538,1.7355
9.5925,512,1.6516
9.5968,489,1.5774
9.6011,505,1.6290
9.6054,540,1.7419
9.6097,545,1.7581
9.6140,512,1.6516
9.6183,501,1.6161
9.6226,532,1.7161
9.6269,557,1.7968
9.6312,548,1.7677
9.6355,520,1.6774
9.6398,521,1.6806
9.6441,561,1.8097
9.6484,574,1.8516
9.6526,548,1.7677
9.6570,530,1.7097
9.6612,547,1.7645
9.6656,584,1.8839
9.6699,587,1.8935
9.6743,553,1.7839
9.6787,547,1.7645
9.6830,585,1.8871
9.6873,608,1.9613
9.6916,597,1.9258
9.6960,570,1.8387
9.7003,580,1.8710
9.7046,622,2.0065
9.7090,638,2.0581
9.7133,614,1.9806
9.7177,599,1.9323
9.7220,624,2.0129
9.7263,655,2.1129
9.7307,653,2.1065
9.7350,618,1.9935
9.7393,614,1.9806
9.7437,650,2.0968
9.7480,667,2.1516
9.7523,638,2.0581
9.7567,604,1.9484
9.7610,604,1.9484
9.7653,627,2.0226
9.7696,623,2.0097
9.7740,577,1.8613
9.7783,548,1.7677
9.7826,564,1.8194
9.7869,574,1.8516
9.7912,552,1.7806
9.7954,508,1.6387
9.7998,499,1.6097
9.8040,529,1.7065
9.8083,539,1.7387
9.8126,507,1.6355
9.8169,480,1.5484
9.8212,490,1.5806
9.8255,525,1.6935
9.8298,529,1.7065
9.8341,494,1.5935
9.8384,481,1.5516
9.8427,509,1.6419
9.8470,536,1.7290
9.8513,527,1.7000
9.8556,496,1.6000
9.8599,497,1.6032
9.8642,534,1.7226
9.8685,552,1.7806
9.8728,524,1.6903
9.8771,500,1.6129
9.8815,513,1.6548
9.8858,546,1.7613
9.8902,545,1.7581
9.8945,509,1.6419
9.8989,498,1.6065
9.9032,530,1.7097
9.9075,548,1.7677
9.9119,530,1.7097
9.9162,499,1.6097
9.9205,504,1.6258
9.9249,540,1.7419
9.9292,548,1.7677
9.9335,512,1.6516
9.9379,490,1.5806
9.9422,510,1.6452
9.9465,539,1.7387
9.9509,533,1.7194
9.9552,496,1.6000
9.9595,487,1.5710
9.9639,520,1.6774
9.9683,538,1.7355
9.9726,513,1.6548
9.9769,489,1.5774
9.9812,498,1.6065
9.9855,531,1.7129
9.9898,535,1.7258
9.9941,501,1.6161
9.9984,483,1.5581
10.0027,507,1.6355
10.0070,529,1.7065
10.0117,514,1.6581
10.0162,484,1.5613
10.0207,492,1.5871
10.0252,530,1.7097
10.0297,534,1.7226
10.0343,498,1.6065
10.0388,490,1.5806
10.0430,522,1.6839
10.0474,541,1.7452
10.0517,529,1.7065
10.0559,498,1.6065
10.0602,497,1.6032
10.0645,535,1.7258
10.0689,550,1.7742
10.0732,522,1.6839
10.0775,505,1.6290
10.0818,526,1.6968
10.0861,560,1.8065
10.0904,567,1.8290
10.0947,539,1.7387
10.0995,535,1.7258
10.1039,563,1.8161
10.1083,567,1.8290
10.1126,537,1.7323
10.1169,500,1.6129
10.1211,504,1.6258
10.1255,533,1.7194
10.1298,535,1.7258
10.1341,498,1.6065
10.1384,479,1.5452
10.1426,507,1.6355
10.1470,532,1.7161
10.1513,527,1.7000
10.1555,491,1.5839
10.1598,486,1.5677
10.1641,517,1.6677
10.1684,524,1.6903
10.1727,489,1.5774
10.1771,454,1.4645
10.1814,463,1.4935
10.1857,504,1.6258
10.1901,545,1.7581
10.1944,576,1.8581
10.1987,649,2.0935
10.2030,796,2.5677
10.2073,952,3.0710
10.2116,1000,3.2258
10.2159,999,3.2226
10.2202,999,3.2226
10.2245,995,3.2097
10.2288,910,2.9355
10.2331,731,2.3581
10.2374,585,1.8871
10.2417,502,1.6194
10.2460,478,1.5419
10.2503,462,1.4903
10.2546,429,1.3839
10.2589,422,1.3613
10.2632,456,1.4710
10.2675,478,1.5419
10.2718,465,1.5000
10.2761,432,1.3935
10.2805,430,1.3871
10.2848,468,1.5097
10.2891,481,1.5516
10.2935,453,1.4613
10.2978,434,1.4000
10.3021,455,1.4677
10.3065,485,1.5645
10.3108,484,1.5613
10.3151,452,1.4581
10.3195,446,1.4387
10.3238,483,1.5581
10.3281,503,1.6226
10.3325,484,1.5613
10.3368,460,1.4839
10.3411,470,1.5161
10.3455,510,1.6452
10.3498,520,1.6774
10.3541,483,1.5581
10.3585,465,1.5000
10.3628,493,1.5903
10.3671,520,1.6774
10.3714,517,1.6677
10.3758,488,1.5742
10.3802,487,1.5710
10.3845,524,1.6903
10.3888,539,1.7387
10.3931,514,1.6581
10.3994,503,1.6226
10.4039,543,1.7516
10.4082,563,1.8161
10.4125,545,1.7581
10.4168,524,1.6903
10.4211,536,1.7290
10.4254,579,1.8677
10.4297,592,1.9097
10.4340,563,1.8161
10.4382,551,1.7774
10.4425,577,1.8613
10.4468,610,1.9677
10.4511,609,1.9645
10.4554,574,1.8516
10.4597,566,1.8258
10.4640,600,1.9355
10.4683,616,1.9871
10.4726,590,1.9032
10.4769,558,1.8000
10.4812,558,1.8000
10.4855,581,1.8742
10.4898,575,1.8548
10.4941,530,1.7097
10.4985,504,1.6258
10.5028,518,1.6710
10.5071,533,1.7194
10.5113,516,1.6645
10.5157,471,1.5194
10.5200,458,1.4774
10.5243,488,1.5742
10.5285,500,1.6129
10.5329,470,1.5161
10.5372,444,1.4323
10.5415,457,1.4742
10.5457,494,1.5935
10.5501,498,1.6065
10.5544,463,1.4935
10.5587,452,1.4581
10.5630,481,1.5516
10.5672,503,1.6226
10.5715,498,1.6065
10.5758,468,1.5097
10.5803,467,1.5065
10.5846,504,1.6258
10.5889,519,1.6742
10.5932,490,1.5806
10.5976,469,1.5129
10.6019,485,1.5645
10.6062,517,1.6677
10.6106,517,1.6677
10.6149,479,1.5452
10.6193,466,1.5032
10.6236,499,1.6097
10.6279,520,1.6774
10.6323,502,1.6194
10.6366,470,1.5161
10.6410,473,1.5258
10.6453,507,1.6355
10.6496,515,1.6613
10.6539,483,1.5581
10.6583,465,1.5000
10.6626,485,1.5645
10.6669,508,1.6387
10.6713,499,1.6097
10.6756,465,1.5000
10.6799,462,1.4903
10.6842,499,1.6097
10.6885,512,1.6516
10.6928,487,1.5710
10.6971,458,1.4774
10.7014,465,1.5000
10.7057,499,1.6097
10.7100,506,1.6323
10.7143,473,1.5258
10.7186,458,1.4774
10.7229,483,1.5581
10.7272,506,1.6323
10.7315,497,1.6032
10.7358,463,1.4935
10.7401,459,1.4806
10.7444,495,1.5968
10.7487,512,1.6516
10.7530,488,1.5742
10.7573,462,1.4903
10.7616,472,1.5226
10.7659,505,1.6290
10.7702,510,1.6452
10.7745,477,1.5387
10.7788,462,1.4903
10.7832,490,1.5806
10.7875,513,1.6548
10.7918,501,1.6161
10.7962,468,1.5097
10.8005,471,1.5194
10.8048,513,1.6548
10.8092,530,1.7097
10.8135,507,1.6355
10.8178,484,1.5613
10.8221,503,1.6226
10.8265,540,1.7419
10.8308,549,1.7710
10.8352,521,1.6806
10.8395,513,1.6548
10.8438,540,1.7419
10.8482,550,1.7742
10.8525,524,1.6903
10.8568,487,1.5710
10.8612,486,1.5677
10.8655,515,1.6613
10.8698,516,1.6645
10.8741,479,1.5452
10.8785,462,1.4903
10.8828,489,1.5774
10.8871,515,1.6613
10.8914,508,1.6387
10.8957,473,1.5258
10.9001,467,1.5065
10.9044,499,1.6097
10.9087,511,1.6484
10.9130,477,1.5387
10.9172,439,1.4161
10.9215,440,1.4194
10.9258,475,1.5323
10.9302,505,1.6290
10.9345,528,1.7032
10.9388,591,1.9065
10.9430,720,2.3226
10.9474,880,2.8387
10.9516,996,3.2129
10.9559,1001,3.2290
10.9602,1002,3.2323
10.9645,1000,3.2258
10.9688,994,3.2065
10.9731,839,2.7065
10.9774,639,2.0613
10.9817,510,1.6452
10.9861,470,1.5161
10.9904,452,1.4581
10.9948,419,1.3516
11.0006,417,1.3452
11.0051,458,1.4774
11.0094,467,1.5065
11.0138,432,1.3935
11.0181,413,1.3323
11.0224,432,1.3935
11.0268,459,1.4806
11.0311,455,1.4677
11.0355,423,1.3645
11.0398,419,1.3516
11.0441,455,1.4677
11.0485,474,1.5290
11.0528,456,1.4710
11.0571,430,1.3871
11.0615,439,1.4161
11.0658,477,1.5387
11.0702,485,1.5645
11.0745,455,1.4677
11.0790,441,1.4226
11.0833,471,1.5194
11.0880,496,1.6000
11.0924,482,1.5548
11.0968,454,1.4645
11.1011,461,1.4871
11.1054,504,1.6258
11.1097,517,1.6677
11.1140,487,1.5710
11.1183,469,1.5129
11.1226,494,1.5935
11.1272,525,1.6935
11.1316,524,1.6903
11.1359,496,1.6000
11.1402,497,1.6032
11.1445,536,1.7290
11.1488,555,1.7903
11.1531,534,1.7226
11.1574,516,1.6645
11.1617,530,1.7097
11.1660,570,1.8387
11.1703,582,1.8774
11.1746,555,1.7903
11.1790,543,1.7516
11.1832,573,1.8484
11.1876,599,1.9323
11.1919,592,1.9097
11.1962,561,1.8097
11.2005,558,1.8000
11.2048,596,1.9226
11.2090,613,1.9774
11.2133,583,1.8806
11.2177,555,1.7903
11.2220,561,1.8097
11.2262,587,1.8935
11.2305,581,1.8742
11.2348,534,1.7226
11.2391,507,1.6355
11.2434,523,1.6871
11.2477,535,1.7258
11.2520,517,1.6677
11.2563,473,1.5258
11.2606,461,1.4871
11.2649,490,1.5806
11.2692,500,1.6129
11.2735,467,1.5065
11.2778,442,1.4258
11.2821,455,1.4677
11.2864,489,1.5774
11.2907,492,1.5871
11.2951,455,1.4677
11.3007,449,1.4484
11.3052,490,1.5806
11.3095,506,1.6323
11.3139,476,1.5355
11.3182,454,1.4645
11.3226,475,1.5323
11.3269,507,1.6355
11.3312,506,1.6323
11.3356,472,1.5226
11.3399,465,1.5000
11.3443,498,1.6065
11.3486,519,1.6742
11.3529,498,1.6065
11.3572,473,1.5258
11.3616,483,1.5581
11.3660,521,1.6806
11.3703,527,1.7000
11.3746,491,1.5839
11.3790,472,1.5226
11.3833,493,1.5903
11.3876,515,1.6613
11.3919,509,1.6419
11.3962,477,1.5387
11.4006,475,1.5323
11.4049,512,1.6516
11.4091,524,1.6903
11.4134,495,1.5968
11.4177,470,1.5161
11.4220,481,1.5516
11.4263,514,1.6581
11.4306,516,1.6645
11.4349,483,1.5581
11.4392,469,1.5129
11.4435,496,1.6000
11.4478,516,1.6645
11.4521,504,1.6258
11.4564,471,1.5194
11.4607,470,1.5161
11.4650,507,1.6355
11.4693,519,1.6742
11.4736,489,1.5774
11.4779,464,1.4968
11.4822,477,1.5387
11.4865,514,1.6581
11.4909,518,1.6710
11.4953,482,1.5548
11.4996,471,1.5194
11.5040,501,1.6161
11.5083,519,1.6742
11.5126,505,1.6290
11.5170,477,1.5387
11.5213,476,1.5355
11.5256,513,1.6548
11.5300,524,1.6903
11.5343,492,1.5871
11.5386,473,1.5258
11.5430,496,1.6000
11.5473,522,1.6839
11.5516,521,1.6806
11.5560,486,1.5677
11.5603,482,1.5548
11.5647,518,1.6710
11.5690,540,1.7419
11.5733,518,1.6710
11.5776,493,1.5903
11.5820,503,1.6226
11.5863,543,1.7516
11.5907,555,1.7903
11.5950,525,1.6935
11.5992,513,1.6548
11.6035,533,1.7194
11.6078,553,1.7839
11.6121,542,1.7484
11.6164,506,1.6323
11.6207,493,1.5903
11.6250,517,1.6677
11.6293,527,1.7000
11.6336,499,1.6097
11.6379,477,1.5387
11.6422,492,1.5871
11.6465,526,1.6968
11.6508,530,1.7097
11.6551,496,1.6000
11.6594,481,1.5516
11.6637,506,1.6323
11.6680,529,1.7065
11.6723,514,1.6581
11.6766,471,1.5194
11.6809,456,1.4710
11.6853,486,1.5677
11.6896,510,1.6452
11.6940,515,1.6613
11.6983,556,1.7935
11.7026,659,2.1258
11.7070,804,2.5935
11.7113,948,3.0581
11.7156,997,3.2161
11.7200,1001,3.2290
11.7243,1001,3.2290
11.7287,1000,3.2258
11.7330,928,2.9935
11.7373,732,2.3613
11.7417,578,1.8645
11.7460,507,1.6355
11.7504,476,1.5355
11.7547,438,1.4129
11.7590,426,1.3742
11.7633,456,1.4710
11.7677,486,1.5677
11.7720,480,1.5484
11.7764,442,1.4258
11.7807,437,1.4097
11.7850,472,1.5226
11.7893,487,1.5710
11.7937,460,1.4839
11.7980,437,1.4097
11.8023,448,1.4452
11.8065,485,1.5645
11.8109,494,1.5935
11.8151,463,1.4935
11.8194,448,1.4452
11.8237,475,1.5323
11.8280,500,1.6129
11.8323,494,1.5935
11.8366,464,1.4968
11.8409,464,1.4968
11.8452,501,1.6161
11.8495,519,1.6742
11.8538,493,1.5903
11.8581,471,1.5194
11.8624,485,1.5645
11.8667,521,1.6806
11.8716,527,1.7000
11.8760,494,1.5935
11.8803,487,1.5710
11.8845,521,1.6806
11.8888,542,1.7484
11.8931,527,1.7000
11.8976,504,1.6258
11.9019,518,1.6710
11.9063,560,1.8065
11.9106,569,1.8355
11.9154,535,1.7258
11.9199,528,1.7032
11.9242,566,1.8258
11.9285,593,1.9129
11.9327,584,1.8839
11.9371,554,1.7871
11.9413,560,1.8065
11.9457,597,1.9258
11.9499,613,1.9774
11.9542,589,1.9000
11.9585,572,1.8452
11.9628,592,1.9097
11.9671,625,2.0161
11.9714,622,2.0065
11.9757,581,1.8742
11.9800,564,1.8194
11.9843,591,1.9065
11.9886,604,1.9484
11.9929,576,1.8581
11.9972,536,1.7290
12.0015,529,1.7065
12.0057,554,1.7871
12.0100,552,1.7806
12.0143,509,1.6419
12.0186,477,1.5387
12.0228,484,1.5613
12.0271,508,1.6387
12.0313,504,1.6258
12.0356,465,1.5000
12.0398,452,1.4581
12.0441,480,1.5484
12.0483,502,1.6194
12.0526,491,1.5839
12.0569,457,1.4742
12.0611,457,1.4742
12.0653,497,1.6032
12.0696,512,1.6516
12.0738,487,1.5710
12.0781,467,1.5065
12.0823,478,1.5419
12.0866,512,1.6516
12.0909,517,1.6677
12.0952,485,1.5645
12.0995,473,1.5258
12.1038,505,1.6290
12.1081,529,1.7065
12.1123,518,1.6710
12.1167,484,1.5613
12.1209,480,1.5484
12.1252,513,1.6548
12.1295,526,1.6968
12.1338,499,1.6097
12.1381,474,1.5290
12.1424,484,1.5613
12.1467,517,1.6677
12.1510,522,1.6839
12.1553,490,1.5806
12.1596,474,1.5290
12.1639,498,1.6065
12.1682,518,1.6710
12.1724,510,1.6452
12.1767,476,1.5355
12.1811,472,1.5226
12.1853,506,1.6323
12.1897,518,1.6710
12.1940,490,1.5806
12.1984,466,1.5032
12.2029,484,1.5613
12.2073,515,1.6613
12.2118,514,1.6581
12.2162,476,1.5355
12.2205,466,1.5032
12.2248,497,1.6032
12.2292,515,1.6613
12.2335,494,1.5935
12.2378,467,1.5065
12.2422,474,1.5290
12.2465,511,1.6484
12.2508,515,1.6613
12.2552,479,1.5452
12.2595,463,1.4935
12.2638,494,1.5935
12.2682,516,1.6645
12.2725,507,1.6355
12.2768,475,1.5323
12.2811,471,1.5194
12.2855,505,1.6290
12.2899,520,1.6774
12.2942,494,1.5935
12.2985,472,1.5226
12.3028,484,1.5613
12.3071,513,1.6548
12.3114,514,1.6581
12.3157,478,1.5419
12.3201,468,1.5097
12.3244,500,1.6129
12.3288,520,1.6774
12.3331,510,1.6452
12.3374,486,1.5677
12.3417,489,1.5774
12.3460,523,1.6871
12.3503,531,1.7129
12.3546,505,1.6290
12.3589,493,1.5903
12.3632,517,1.6677
12.3675,544,1.7548
12.3718,534,1.7226
12.3761,493,1.5903
12.3804,477,1.5387
12.3847,504,1.6258
12.3890,520,1.6774
12.3933,503,1.6226
12.3976,477,1.5387
12.4019,481,1.5516
12.4062,518,1.6710
12.4105,525,1.6935
12.4148,492,1.5871
12.4191,474,1.5290
12.4234,494,1.5935
12.4277,522,1.6839
12.4320,511,1.6484
12.4363,462,1.4903
12.4406,445,1.4355
12.4448,482,1.5548
12.4492,536,1.7290
12.4535,582,1.8774
12.4577,640,2.0645
12.4620,756,2.4387
12.4663,923,2.9774
12.4706,999,3.2226
12.4749,1000,3.2258
12.4792,998,3.2194
12.4835,995,3.2097
12.4878,914,2.9484
12.4922,754,2.4323
12.4965,590,1.9032
12.5008,483,1.5581
12.5052,460,1.4839
12.5095,460,1.4839
12.5138,438,1.4129
12.5182,418,1.3484
12.5225,433,1.3968
12.5268,472,1.5226
12.5312,480,1.5484
12.5355,445,1.4355
12.5398,431,1.3903
12.5441,459,1.4806
12.5485,482,1.5548
12.5528,468,1.5097
12.5571,433,1.3968
12.5615,433,1.3968
12.5658,475,1.5323
12.5701,493,1.5903
12.5745,466,1.5032
12.5788,443,1.4290
12.5831,457,1.4742
12.5875,489,1.5774
12.5918,493,1.5903
12.5961,461,1.4871
12.6004,452,1.4581
12.6047,487,1.5710
12.6090,509,1.6419
12.6133,496,1.6000
12.6176,468,1.5097
12.6219,471,1.5194
12.6262,508,1.6387
12.6305,525,1.6935
12.6348,497,1.6032
12.6391,481,1.5516
12.6434,503,1.6226
12.6477,533,1.7194
12.6520,537,1.7323
12.6563,507,1.6355
12.6606,503,1.6226
12.6649,543,1.7516
12.6692,565,1.8226
12.6735,552,1.7806
12.6777,527,1.7000
12.6820,532,1.7161
12.6863,576,1.8581
12.6906,594,1.9161
12.6949,568,1.8323
12.6992,552,1.7806
12.7036,576,1.8581
12.7079,608,1.9613
12.7122,606,1.9548
12.7166,575,1.8548
12.7209,569,1.8355
12.7252,603,1.9452
12.7295,615,1.9839
12.7339,588,1.8968
12.7382,557,1.7968
12.7425,558,1.8000
12.7469,584,1.8839
12.7512,575,1.8548
12.7555,525,1.6935
12.7599,497,1.6032
12.7642,512,1.6516
12.7685,526,1.6968
12.7728,507,1.6355
12.7772,464,1.4968
12.7815,454,1.4645
12.7858,484,1.5613
12.7902,492,1.5871
12.7947,463,1.4935
12.7991,444,1.4323
12.8037,464,1.4968
12.8081,488,1.5742
12.8124,483,1.5581
12.8167,449,1.4484
12.8210,446,1.4387
12.8253,482,1.5548
12.8296,502,1.6194
12.8339,485,1.5645
12.8382,462,1.4903
12.8425,469,1.5129
12.8468,503,1.6226
12.8511,508,1.6387
12.8554,475,1.5323
12.8603,462,1.4903
12.8647,496,1.6000
12.8690,519,1.6742
12.8732,506,1.6323
12.8775,471,1.5194
12.8818,468,1.5097
12.8861,502,1.6194
12.8904,516,1.6645
12.8948,488,1.5742
12.8991,465,1.5000
12.9034,477,1.5387
12.9077,507,1.6355
12.9120,506,1.6323
12.9163,471,1.5194
12.9207,462,1.4903
12.9250,495,1.5968
12.9294,514,1.6581
12.9337,491,1.5839
12.9380,461,1.4871
12.9423,465,1.5000
12.9466,504,1.6258
12.9509,513,1.6548
12.9552,483,1.5581
12.9595,464,1.4968
12.9638,482,1.5548
12.9681,507,1.6355
12.9723,503,1.6226
12.9766,467,1.5065
12.9809,460,1.4839
12.9852,497,1.6032
12.9895,516,1.6645
12.9938,495,1.5968
12.9981,465,1.5000
13.0024,471,1.5194
13.0067,509,1.6419
13.0110,518,1.6710
13.0153,483,1.5581
13.0196,463,1.4935
13.0239,486,1.5677
13.0282,515,1.6613
13.0325,513,1.6548
13.0368,477,1.5387
13.0411,470,1.5161
13.0454,504,1.6258
13.0497,521,1.6806
13.0540,501,1.6161
13.0582,475,1.5323
13.0625,481,1.5516
13.0668,513,1.6548
13.0711,521,1.6806
13.0754,490,1.5806
13.0797,474,1.5290
13.0840,495,1.5968
13.0883,522,1.6839
13.0926,522,1.6839
13.0971,494,1.5935
13.1015,490,1.5806
13.1061,523,1.6871
13.1104,536,1.7290
13.1147,510,1.6452
13.1191,496,1.6000
13.1233,519,1.6742
13.1276,549,1.7710
13.1319,543,1.7516
13.1363,499,1.6097
13.1406,480,1.5484
13.1449,506,1.6323
13.1492,526,1.6968
13.1535,512,1.6516
13.1578,484,1.5613
13.1621,487,1.5710
13.1664,520,1.6774
13.1707,530,1.7097
13.1750,500,1.6129
13.1793,480,1.5484
13.1836,494,1.5935
13.1880,517,1.6677
13.1923,507,1.6355
13.1966,461,1.4871
13.2009,449,1.4484
13.2052,496,1.6000
13.2094,561,1.8097
13.2137,616,1.9871
13.2180,680,2.1935
13.2222,806,2.6000
13.2265,972,3.1355
13.2308,1000,3.2258
13.2351,1002,3.2323
13.2393,1001,3.2290
13.2436,996,3.2129
13.2479,910,2.9355
13.2522,752,2.4258
13.2564,587,1.8935
13.2607,478,1.5419
13.2650,458,1.4774
13.2693,463,1.4935
13.2735,452,1.4581
13.2778,426,1.3742
13.2820,432,1.3935
13.2863,470,1.5161
13.2906,483,1.5581
13.2948,453,1.4613
13.2991,433,1.3968
13.3034,446,1.4387
13.3077,476,1.5355
13.3120,480,1.5484
13.3163,446,1.4387
13.3207,437,1.4097
13.3250,470,1.5161
13.3293,493,1.5903
13.3337,479,1.5452
13.3380,449,1.4484
13.3423,452,1.4581
13.3467,492,1.5871
13.3510,504,1.6258
13.3554,476,1.5355
13.3597,460,1.4839
13.3640,481,1.5516
13.3684,510,1.6452
13.3727,508,1.6387
13.3770,476,1.5355
13.3814,473,1.5258
13.3857,510,1.6452
13.3901,531,1.7129
13.3944,508,1.6387
13.3988,489,1.5774
13.4031,503,1.6226
13.4074,537,1.7323
13.4117,544,1.7548
13.4160,513,1.6548
13.4203,502,1.6194
13.4246,533,1.7194
13.4290,563,1.8161
13.4333,559,1.8032
13.4376,534,1.7226
13.4419,539,1.7387
13.4462,579,1.8677
13.4505,597,1.9258
13.4548,573,1.8484
13.4591,555,1.7903
13.4634,571,1.8419
13.4677,608,1.9613
13.4719,614,1.9806
13.4762,580,1.8710
13.4805,567,1.8290
13.4848,599,1.9323
13.4891,620,2.0000
13.4934,604,1.9484
13.4977,564,1.8194
13.5021,555,1.7903
13.5064,581,1.8742
13.5108,584,1.8839
13.5151,542,1.7484
13.5195,507,1.6355
13.5238,515,1.6613
13.5281,535,1.7258
13.5325,520,1.6774
13.5368,475,1.5323
13.5412,459,1.4806
13.5455,487,1.5710
13.5498,501,1.6161
13.5542,479,1.5452
13.5585,451,1.4548
13.5628,457,1.4742
13.5672,491,1.5839
13.5715,500,1.6129
13.5758,468,1.5097
13.5802,452,1.4581
13.5845,478,1.5419
13.5889,504,1.6258
13.5932,499,1.6097
13.5975,466,1.5032
13.6019,466,1.5032
13.6062,504,1.6258
13.6105,521,1.6806
13.6148,495,1.5968
13.6191,473,1.5258
13.6234,486,1.5677
13.6277,520,1.6774
13.6320,522,1.6839
13.6363,487,1.5710
13.6406,472,1.5226
13.6449,498,1.6065
13.6492,519,1.6742
13.6535,507,1.6355
13.6578,476,1.5355
13.6621,474,1.5290
13.6664,509,1.6419
13.6707,523,1.6871
13.6750,496,1.6000
13.6793,470,1.5161
13.6836,480,1.5484
13.6879,510,1.6452
13.6921,510,1.6452
13.6965,474,1.5290
13.7014,466,1.5032
13.7059,503,1.6226
13.7103,516,1.6645
13.7146,489,1.5774
13.7189,464,1.4968
13.7232,473,1.5258
13.7275,508,1.6387
13.7318,516,1.6645
13.7361,481,1.5516
13.7404,463,1.4935
13.7447,488,1.5742
13.7490,513,1.6548
13.7532,504,1.6258
13.7575,470,1.5161
13.7619,467,1.5065
13.7661,502,1.6194
13.7704,516,1.6645
13.7747,489,1.5774
13.7790,466,1.5032
13.7833,479,1.5452
13.7876,514,1.6581
13.7919,520,1.6774
13.7962,486,1.5677
13.8005,468,1.5097
13.8049,493,1.5903
13.8092,512,1.6516
13.8136,503,1.6226
13.8179,473,1.5258
13.8222,475,1.5323
13.8266,510,1.6452
13.8309,519,1.6742
13.8352,493,1.5903
13.8396,472,1.5226
13.8439,486,1.5677
13.8482,515,1.6613
13.8526,515,1.6613
13.8569,487,1.5710
13.8612,482,1.5548
13.8656,515,1.6613
13.8699,528,1.7032
13.8743,511,1.6484
13.8786,488,1.5742
13.8829,502,1.6194
13.8873,539,1.7387
13.8916,543,1.7516
13.8959,504,1.6258
13.9003,478,1.5419
13.9046,496,1.6000
13.9089,517,1.6677
13.9133,513,1.6548
13.9176,479,1.5452
13.9219,474,1.5290
13.9262,508,1.6387
13.9305,524,1.6903
13.9347,502,1.6194
13.9390,479,1.5452
13.9433,484,1.5613
13.9477,513,1.6548
13.9520,509,1.6419
13.9563,462,1.4903
13.9606,441,1.4226
13.9649,472,1.5226
13.9692,528,1.7032
13.9735,585,1.8871
13.9778,638,2.0581
13.9821,747,2.4097
13.9864,925,2.9839
13.9907,1001,3.2290
13.9950,1001,3.2290
13.9995,1000,3.2258
14.0039,998,3.2194
14.0082,958,3.0903
14.0126,784,2.5290
14.0169,584,1.8839
14.0212,464,1.4968
14.0255,452,1.4581
14.0298,467,1.5065
14.0341,454,1.4645
14.0384,426,1.3742
14.0427,426,1.3742
14.0469,459,1.4806
14.0513,468,1.5097
14.0555,437,1.4097
14.0598,416,1.3419
14.0641,433,1.3968
14.0684,463,1.4935
14.0727,465,1.5000
14.0770,433,1.3968
14.0813,425,1.3710
14.0856,458,1.4774
14.0899,481,1.5516
14.0942,466,1.5032
14.0985,435,1.4032
14.1028,439,1.4161
14.1072,480,1.5484
14.1115,495,1.5968
14.1159,462,1.4903
14.1203,444,1.4323
14.1246,469,1.5129
14.1289,500,1.6129
14.1333,496,1.6000
14.1376,462,1.4903
14.1420,459,1.4806
14.1463,497,1.6032
14.1506,517,1.6677
14.1550,497,1.6032
14.1593,479,1.5452
14.1636,490,1.5806
14.1680,525,1.6935
14.1723,530,1.7097
14.1766,500,1.6129
14.1809,494,1.5935
14.1853,530,1.7097
14.1896,556,1.7935
14.1939,548,1.7677
14.1983,521,1.6806
14.2026,530,1.7097
14.2069,572,1.8452
14.2113,588,1.8968
14.2156,561,1.8097
14.2199,543,1.7516
14.2242,565,1.8226
14.2285,595,1.9194
14.2328,599,1.9323
14.2371,565,1.8226
14.2414,557,1.7968
14.2457,589,1.9000
14.2500,607,1.9581
14.2543,590,1.9032
14.2586,555,1.7903
14.2628,548,1.7677
14.2671,573,1.8484
14.2714,573,1.8484
14.2757,530,1.7097
14.2801,498,1.6065
14.2844,505,1.6290
14.2886,522,1.6839
14.2929,510,1.6452
14.2972,466,1.5032
14.3015,449,1.4484
14.3058,476,1.5355
14.3102,490,1.5806
14.3145,470,1.5161
14.3188,443,1.4290
14.3231,445,1.4355
14.3274,481,1.5516
14.3317,487,1.5710
14.3360,454,1.4645
14.3403,437,1.4097
14.3446,462,1.4903
14.3489,492,1.5871
14.3532,493,1.5903
14.3575,459,1.4806
14.3618,454,1.4645
14.3661,489,1.5774
14.3704,508,1.6387
14.3746,485,1.5645
14.3789,458,1.4774
14.3832,467,1.5065
14.3875,505,1.6290
14.3918,512,1.6516
14.3961,480,1.5484
14.4004,463,1.4935
14.4047,483,1.5581
14.4091,509,1.6419
14.4134,503,1.6226
14.4178,469,1.5129
14.4221,463,1.4935
14.4265,496,1.6000
14.4308,509,1.6419
14.4351,483,1.5581
14.4395,461,1.4871
14.4438,472,1.5226
14.4481,504,1.6258
14.4524,505,1.6290
14.4568,469,1.5129
14.4611,454,1.4645
14.4654,483,1.5581
14.4698,506,1.6323
14.4741,494,1.5935
14.4784,462,1.4903
14.4828,461,1.4871
14.4871,496,1.6000
14.4914,504,1.6258
14.4957,475,1.5323
14.5001,454,1.4645
14.5045,471,1.5194
14.5088,502,1.6194
14.5131,504,1.6258
14.5174,467,1.5065
14.5218,457,1.4742
14.5261,487,1.5710
14.5303,505,1.6290
14.5346,489,1.5774
14.5389,460,1.4839
14.5432,463,1.4935
14.5475,502,1.6194
14.5518,513,1.6548
14.5561,481,1.5516
14.5604,459,1.4806
14.5647,478,1.5419
14.5690,507,1.6355
14.5733,504,1.6258
14.5776,468,1.5097
14.5819,463,1.4935
14.5861,500,1.6129
14.5904,517,1.6677
14.5948,496,1.6000
14.6001,464,1.4968
14.6045,483,1.5581
14.6089,511,1.6484
14.6132,511,1.6484
14.6175,483,1.5581
14.6218,480,1.5484
14.6262,512,1.6516
14.6310,526,1.6968
14.6353,500,1.6129
14.6396,482,1.5548
14.6439,502,1.6194
14.6482,538,1.7355
14.6525,540,1.7419
14.6568,500,1.6129
14.6611,476,1.5355
14.6654,494,1.5935
14.6697,513,1.6548
14.6740,498,1.6065
14.6783,470,1.5161
14.6826,468,1.5097
14.6869,508,1.6387
14.6912,520,1.6774
14.6954,493,1.5903
14.6997,471,1.5194
14.7040,482,1.5548
14.7083,507,1.6355
14.7127,502,1.6194
14.7170,458,1.4774
14.7213,437,1.4097
14.7256,468,1.5097
14.7299,515,1.6613
14.7342,558,1.8000
14.7385,606,1.9548
14.7428,711,2.2935
14.7471,882,2.8452
14.7514,998,3.2194
14.7557,1000,3.2258
14.7600,1000,3.2258
14.7642,1000,3.2258
14.7686,970,3.1290
14.7729,810,2.6129
14.7772,616,1.9871
14.7814,482,1.5548
14.7857,449,1.4484
14.7901,457,1.4742
14.7944,449,1.4484
14.7986,424,1.3677
14.8029,426,1.3742
14.8072,458,1.4774
14.8115,469,1.5129
14.8158,438,1.4129
14.8202,414,1.3355
14.8245,429,1.3839
14.8288,460,1.4839
14.8331,463,1.4935
14.8374,431,1.3903
14.8417,422,1.3613
14.8460,453,1.4613
14.8503,473,1.5258
14.8546,459,1.4806
14.8589,430,1.3871
14.8632,435,1.4032
14.8675,475,1.5323
14.8718,488,1.5742
14.8761,459,1.4806
14.8804,438,1.4129
14.8847,459,1.4806
14.8889,490,1.5806
14.8944,480,1.5484
14.9000,450,1.4516
14.9045,470,1.5161
14.9088,504,1.6258
14.9132,508,1.6387
14.9175,476,1.5355
14.9218,467,1.5065
14.9261,500,1.6129
14.9304,523,1.6871
14.9347,511,1.6484
14.9390,486,1.5677
14.9433,497,1.6032
14.9476,535,1.7258
14.9519,548,1.7677
14.9561,523,1.6871
14.9604,510,1.6452
14.9647,534,1.7226
14.9690,568,1.8323
14.9733,574,1.8516
14.9776,542,1.7484
14.9819,539,1.7387
14.9862,575,1.8548
14.9905,597,1.9258
14.9949,579,1.8677
14.9992,553,1.7839
15.0035,557,1.7968
15.0082,594,1.9161
15.0127,596,1.9226
15.0261,563,1.8161
15.0314,569,1.8355
15.0361,522,1.6839
15.0405,492,1.5871
15.0448,501,1.6161
15.0491,517,1.6677
15.0534,505,1.6290
15.0578,460,1.4839
15.0620,443,1.4290
15.0663,468,1.5097
15.0706,484,1.5613
15.0749,463,1.4935
15.0793,434,1.4000
15.0835,436,1.4065
15.0878,471,1.5194
15.0921,481,1.5516
15.0964,454,1.4645
15.1007,435,1.4032
15.1050,452,1.4581
15.1093,481,1.5516
15.1136,480,1.5484
15.1179,448,1.4452
15.1222,442,1.4258
15.1265,474,1.5290
15.1308,491,1.5839
15.1350,474,1.5290
15.1393,449,1.4484
15.1436,454,1.4645
15.1478,488,1.5742
15.1521,495,1.5968
15.1565,462,1.4903
15.1609,441,1.4226
15.1653,464,1.4968
15.1697,492,1.5871
15.1739,486,1.5677
15.1782,452,1.4581
15.1825,446,1.4387
15.1868,480,1.5484
15.1910,497,1.6032
15.1953,475,1.5323
15.1996,446,1.4387
15.2038,449,1.4484
15.2081,482,1.5548
15.2124,489,1.5774
15.2166,458,1.4774
15.2209,440,1.4194
15.2252,459,1.4806
15.2295,485,1.5645
15.2338,481,1.5516
15.2381,444,1.4323
15.2424,434,1.4000
15.2467,467,1.5065
15.2510,487,1.5710
15.2553,466,1.5032
15.2596,438,1.4129
15.2639,444,1.4323
15.2682,477,1.5387
15.2725,484,1.5613
15.2768,450,1.4516
15.2811,435,1.4032
15.2854,460,1.4839
15.2897,487,1.5710
15.2940,483,1.5581
15.2983,449,1.4484
15.3026,443,1.4290
15.3069,476,1.5355
15.3112,490,1.5806
15.3155,466,1.5032
15.3198,444,1.4323
15.3241,454,1.4645
15.3285,489,1.5774
15.3328,490,1.5806
15.3371,454,1.4645
15.3414,439,1.4161
15.3458,465,1.5000
15.3502,488,1.5742
15.3545,481,1.5516
15.3588,451,1.4548
15.3632,450,1.4516
15.3675,483,1.5581
15.3718,492,1.5871
15.3762,468,1.5097
15.3805,454,1.4645
15.3848,473,1.5258
15.3892,501,1.6161
15.3935,493,1.5903
15.3979,455,1.4677
15.4022,453,1.4613
15.4065,497,1.6032
15.4109,517,1.6677
15.4152,496,1.6000
15.4197,461,1.4871
15.4240,457,1.4742
15.4283,485,1.5645
15.4326,489,1.5774
15.4369,455,1.4677
15.4412,439,1.4161
15.4455,464,1.4968
15.4498,489,1.5774
15.4541,486,1.5677
15.4584,454,1.4645
15.4627,448,1.4452
15.4670,484,1.5613
15.4713,492,1.5871
15.4756,456,1.4710
15.4799,421,1.3581
15.4842,422,1.3613
15.4885,464,1.4968
15.4928,509,1.6419
15.4971,544,1.7548
15.5024,648,2.0903
15.5068,811,2.6161
15.5112,953,3.0742
15.5155,997,3.2161
15.5198,1000,3.2258
15.5242,995,3.2097
15.5285,935,3.0161
15.5328,791,2.5516
15.5371,627,2.0226
15.5414,504,1.6258
15.5457,445,1.4355
15.5500,430,1.3871
15.5543,416,1.3419
15.5586,388,1.2516
15.5629,390,1.2581
15.5672,430,1.3871
15.5715,446,1.4387
15.5758,419,1.3516
15.5801,395,1.2742
15.5844,411,1.3258
15.5887,446,1.4387
15.5930,448,1.4452
15.5973,411,1.3258
15.6016,397,1.2806
15.6059,428,1.3806
15.6102,455,1.4677
15.6145,447,1.4419
15.6188,413,1.3323
15.6231,412,1.3290
15.6275,450,1.4516
15.6318,467,1.5065
15.6361,444,1.4323
15.6405,427,1.3774
15.6448,442,1.4258
15.6491,473,1.5258
15.6535,478,1.5419
15.6578,443,1.4290
15.6621,433,1.3968
15.6665,467,1.5065
15.6708,488,1.5742
15.6751,476,1.5355
15.6795,452,1.4581
15.6838,460,1.4839
15.6882,498,1.6065
15.6925,512,1.6516
15.6968,484,1.5613
15.7012,470,1.5161
15.7055,499,1.6097
15.7098,532,1.7161
15.7142,534,1.7226
15.7185,506,1.6323
15.7229,505,1.6290
15.7273,547,1.7645
15.7316,569,1.8355
15.7359,548,1.7677
15.7402,527,1.7000
15.7445,540,1.7419
15.7488,576,1.8581
15.7531,584,1.8839
15.7574,553,1.7839
15.7617,545,1.7581
15.7660,576,1.8581
15.7703,596,1.9226
15.7746,580,1.8710
15.7789,538,1.7355
15.7832,526,1.6968
15.7875,555,1.7903
15.7918,561,1.8097
15.7961,522,1.6839
15.8022,479,1.5452
15.8067,501,1.6161
15.8110,511,1.6484
15.8153,483,1.5581
15.8196,444,1.4323
15.8239,437,1.4097
15.8282,465,1.5000
15.8325,473,1.5258
15.8368,440,1.4194
15.8411,419,1.3516
15.8454,441,1.4226
15.8497,471,1.5194
15.8540,469,1.5129
15.8583,433,1.3968
15.8626,424,1.3677
15.8669,460,1.4839
15.8712,485,1.5645
15.8754,467,1.5065
15.8798,442,1.4258
15.8841,450,1.4516
15.8884,488,1.5742
15.8927,498,1.6065
15.8969,462,1.4903
15.9013,443,1.4290
15.9055,465,1.5000
15.9098,495,1.5968
15.9141,491,1.5839
15.9184,456,1.4710
15.9227,450,1.4516
15.9270,484,1.5613
15.9314,503,1.6226
15.9357,481,1.5516
15.9401,453,1.4613
15.9445,458,1.4774
15.9488,491,1.5839
15.9531,497,1.6032
15.9574,463,1.4935
15.9618,448,1.4452
15.9661,475,1.5323
15.9704,500,1.6129
15.9748,491,1.5839
15.9791,453,1.4613
15.9835,450,1.4516
15.9878,487,1.5710
15.9921,502,1.6194
15.9965,479,1.5452
16.0008,459,1.4806
16.0051,466,1.5032
16.0095,495,1.5968
16.0138,496,1.6000
16.0181,460,1.4839
16.0225,450,1.4516
16.0269,483,1.5581
16.0312,503,1.6226
16.0355,485,1.5645
16.0398,456,1.4710
16.0441,462,1.4903
16.0484,499,1.6097
16.0527,508,1.6387
16.0570,474,1.5290
16.0613,458,1.4774
16.0656,481,1.5516
16.0699,509,1.6419
16.0742,508,1.6387
16.0785,471,1.5194
16.0828,463,1.4935
16.0871,497,1.6032
16.0914,518,1.6710
16.0957,499,1.6097
16.1000,470,1.5161
16.1042,475,1.5323
16.1086,512,1.6516
16.1129,522,1.6839
16.1172,490,1.5806
16.1215,472,1.5226
16.1259,496,1.6000
16.1302,522,1.6839
16.1346,514,1.6581
16.1389,481,1.5516
16.1432,485,1.5645
16.1476,527,1.7000
16.1519,542,1.7484
16.1562,514,1.6581
16.1606,490,1.5806
16.1649,505,1.6290
16.1692,544,1.7548
16.1736,551,1.7774
16.1779,511,1.6484
16.1822,493,1.5903
16.1866,517,1.6677
16.1909,530,1.7097
16.1952,512,1.6516
16.1996,480,1.5484
16.2039,482,1.5548
16.2082,521,1.6806
16.2126,536,1.7290
16.2169,507,1.6355
16.2212,485,1.5645
16.2256,504,1.6258
16.2299,529,1.7065
16.2342,522,1.6839
16.2385,478,1.5419
16.2428,463,1.4935
16.2471,490,1.5806
16.2514,516,1.6645
16.2557,537,1.7323
16.2600,574,1.8516
16.2643,668,2.1548
16.2686,827,2.6677
16.2729,972,3.1355
16.2772,1000,3.2258
16.2815,1000,3.2258
16.2858,1002,3.2323
16.2902,999,3.2226
16.2945,939,3.0290
16.2987,745,2.4032
16.3030,595,1.9194
16.3073,527,1.7000
16.3116,492,1.5871
16.3159,453,1.4613
16.3202,428,1.3806
16.3245,437,1.4097
16.3288,477,1.5387
16.3332,486,1.5677
16.3375,454,1.4645
16.3418,439,1.4161
16.3462,462,1.4903
16.3505,485,1.5645
16.3548,475,1.5323
16.3592,442,1.4258
16.3635,442,1.4258
16.3678,479,1.5452
16.3722,497,1.6032
16.3765,473,1.5258
16.3809,451,1.4548
16.3852,464,1.4968
16.3895,496,1.6000
16.3939,502,1.6194
16.3983,468,1.5097
16.4033,466,1.5032
16.4078,504,1.6258
16.4121,520,1.6774
16.4170,492,1.5871
16.4214,474,1.5290
16.4257,497,1.6032
16.4303,530,1.7097
16.4346,528,1.7032
16.4389,496,1.6000
16.4432,495,1.5968
16.4475,533,1.7194
16.4518,553,1.7839
16.4561,532,1.7161
16.4604,507,1.6355
16.4647,517,1.6677
16.4690,558,1.8000
16.4733,573,1.8484
16.4776,544,1.7548
16.4819,536,1.7290
16.4862,566,1.8258
16.4905,596,1.9226
16.4948,596,1.9226
16.4991,566,1.8258
16.5034,565,1.8226
16.5077,605,1.9516
16.5120,626,2.0194
16.5163,603,1.9452
16.5206,577,1.8613
16.5249,587,1.8935
16.5293,622,2.0065
16.5336,626,2.0194
16.5380,588,1.8968
16.5423,570,1.8387
16.5466,592,1.9097
16.5510,605,1.9516
16.5553,584,1.8839
16.5596,545,1.7581
16.5640,531,1.7129
16.5683,551,1.7774
16.5726,551,1.7774
16.5770,514,1.6581
16.5813,481,1.5516
16.5857,489,1.5774
16.5900,513,1.6548
16.5944,509,1.6419
16.5987,472,1.5226
16.6030,462,1.4903
16.6074,492,1.5871
16.6117,510,1.6452
16.6161,491,1.5839
16.6204,467,1.5065
16.6247,478,1.5419
16.6291,513,1.6548
16.6334,520,1.6774
16.6377,490,1.5806
16.6420,474,1.5290
16.6463,498,1.6065
16.6506,523,1.6871
16.6549,517,1.6677
16.6592,486,1.5677
16.6635,480,1.5484
16.6678,516,1.6645
16.6721,531,1.7129
16.6764,504,1.6258
16.6807,480,1.5484
16.6850,493,1.5903
16.6893,527,1.7000
16.6936,530,1.7097
16.6979,495,1.5968
16.7030,482,1.5548
16.7075,514,1.6581
16.7117,532,1.7161
16.7160,510,1.6452
16.7203,482,1.5548
16.7246,486,1.5677
16.7289,519,1.6742
16.7332,526,1.6968
16.7376,490,1.5806
16.7419,473,1.5258
16.7462,498,1.6065
16.7505,522,1.6839
16.7548,513,1.6548
16.7591,477,1.5387
16.7634,471,1.5194
16.7677,506,1.6323
16.7720,522,1.6839
16.7763,502,1.6194
16.7806,474,1.5290
16.7849,480,1.5484
16.7892,515,1.6613
16.7935,522,1.6839
16.7978,490,1.5806
16.8021,476,1.5355
16.8064,499,1.6097
16.8107,524,1.6903
16.8150,520,1.6774
16.8193,487,1.5710
16.8236,481,1.5516
16.8279,514,1.6581
16.8323,528,1.7032
16.8366,503,1.6226
16.8409,475,1.5323
16.8453,487,1.5710
16.8496,521,1.6806
16.8539,523,1.6871
16.8583,490,1.5806
16.8626,478,1.5419
16.8669,509,1.6419
16.8713,534,1.7226
16.8756,521,1.6806
16.8802,489,1.5774
16.8845,490,1.5806
16.8889,524,1.6903
16.8932,533,1.7194
16.8975,504,1.6258
16.9018,493,1.5903
16.9062,519,1.6742
16.9105,547,1.7645
16.9148,540,1.7419
16.9191,503,1.6226
16.9235,501,1.6161
16.9278,542,1.7484
16.9322,564,1.8194
16.9365,539,1.7387
16.9408,510,1.6452
16.9451,510,1.6452
16.9494,533,1.7194
16.9537,532,1.7161
16.9580,497,1.6032
16.9623,484,1.5613
16.9666,513,1.6548
16.9709,536,1.7290
16.9752,527,1.7000
16.9795,495,1.5968
16.9838,489,1.5774
16.9881,521,1.6806
16.9924,532,1.7161
16.9967,501,1.6161
17.0010,467,1.5065
17.0053,466,1.5032
17.0096,502,1.6194
17.0139,531,1.7129
17.0182,556,1.7935
17.0225,629,2.0290
17.0268,765,2.4677
17.0311,932,3.0065
17.0354,999,3.2226
17.0397,1000,3.2258
17.0440,1002,3.2323
17.0483,1002,3.2323
17.0527,995,3.2097
17.0570,841,2.7129
17.0614,644,2.0774
17.0657,524,1.6903
17.0701,491,1.5839
17.0744,479,1.5452
17.0788,447,1.4419
17.0831,440,1.4194
17.0874,472,1.5226
17.0918,492,1.5871
17.0961,472,1.5226
17.1004,441,1.4226
17.1048,443,1.4290
17.1091,480,1.5484
17.1135,489,1.5774
17.1178,458,1.4774
17.1221,443,1.4290
17.1264,466,1.5032
17.1308,491,1.5839
17.1351,486,1.5677
17.1395,452,1.4581
17.1438,451,1.4548
17.1481,487,1.5710
17.1523,505,1.6290
17.1567,482,1.5548
17.1609,460,1.4839
17.1652,472,1.5226
17.1695,508,1.6387
17.1738,518,1.6710
17.1781,486,1.5677
17.1824,470,1.5161
17.1867,496,1.6000
17.1910,523,1.6871
17.1953,520,1.6774
17.1996,489,1.5774
17.2039,488,1.5742
17.2082,528,1.7032
17.2125,550,1.7742
17.2168,530,1.7097
17.2211,509,1.6419
17.2254,522,1.6839
17.2297,559,1.8032
17.2340,567,1.8290
17.2383,537,1.7323
17.2426,529,1.7065
17.2470,563,1.8161
17.2513,591,1.9065
17.2556,586,1.8903
17.2600,559,1.8032
17.2643,562,1.8129
17.2686,602,1.9419
17.2729,617,1.9903
17.2773,591,1.9065
17.2816,572,1.8452
17.2860,590,1.9032
17.2903,624,2.0129
17.2947,624,2.0129
17.2991,583,1.8806
17.3045,576,1.8581
17.3090,596,1.9226
17.3134,594,1.9161
17.3177,553,1.7839
17.3221,522,1.6839
17.3264,531,1.7129
17.3307,548,1.7677
17.3351,532,1.7161
17.3394,487,1.5710
17.3437,472,1.5226
17.3480,501,1.6161
17.3524,513,1.6548
17.3567,489,1.5774
17.3610,459,1.4806
17.3653,464,1.4968
17.3696,496,1.6000
17.3739,504,1.6258
17.3782,474,1.5290
17.3825,460,1.4839
17.3868,487,1.5710
17.3911,515,1.6613
17.3954,511,1.6484
17.3997,478,1.5419
17.4040,471,1.5194
17.4083,507,1.6355
17.4125,523,1.6871
17.4168,500,1.6129
17.4212,472,1.5226
17.4255,482,1.5548
17.4297,519,1.6742
17.4340,526,1.6968
17.4384,492,1.5871
17.4428,478,1.5419
17.4471,505,1.6290
17.4514,528,1.7032
17.4558,517,1.6677
17.4602,484,1.5613
17.4645,485,1.5645
17.4689,516,1.6645
17.4732,523,1.6871
17.4775,493,1.5903
17.4819,470,1.5161
17.4862,488,1.5742
17.4905,518,1.6710
17.4949,517,1.6677
17.4992,485,1.5645
17.5035,474,1.5290
17.5079,504,1.6258
17.5122,519,1.6742
17.5165,497,1.6032
17.5209,470,1.5161
17.5252,477,1.5387
17.5295,515,1.6613
17.5339,519,1.6742
17.5382,484,1.5613
17.5425,469,1.5129
17.5469,492,1.5871
17.5512,515,1.6613
17.5554,506,1.6323
17.5597,472,1.5226
17.5640,468,1.5097
17.5683,502,1.6194
17.5726,520,1.6774
17.5769,496,1.6000
17.5812,471,1.5194
17.5855,483,1.5581
17.5898,516,1.6645
17.5941,519,1.6742
17.5985,483,1.5581
17.6037,469,1.5129
17.6082,504,1.6258
17.6125,525,1.6935
17.6168,503,1.6226
17.6211,475,1.5323
17.6254,482,1.5548
17.6297,517,1.6677
17.6340,526,1.6968
17.6382,496,1.6000
17.6425,477,1.5387
17.6469,498,1.6065
17.6512,521,1.6806
17.6555,517,1.6677
17.6597,487,1.5710
17.6640,488,1.5742
17.6684,526,1.6968
17.6726,541,1.7452
17.6769,515,1.6613
17.6812,492,1.5871
17.6855,510,1.6452
17.6898,546,1.7613
17.6941,553,1.7839
17.6984,513,1.6548
17.7027,486,1.5677
17.7070,501,1.6161
17.7113,521,1.6806
17.7156,515,1.6613
17.7199,483,1.5581
17.7242,480,1.5484
17.7285,516,1.6645
17.7328,534,1.7226
17.7371,511,1.6484
17.7414,488,1.5742
17.7457,496,1.6000
17.7501,524,1.6903
17.7544,519,1.6742
17.7588,472,1.5226
17.7631,448,1.4452
17.7674,474,1.5290
17.7718,517,1.6677
17.7761,561,1.8097
17.7805,608,1.9613
17.7848,715,2.3065
17.7892,890,2.8710
17.7935,998,3.2194
17.7979,1001,3.2290
17.8022,1001,3.2290
17.8065,1001,3.2290
17.8109,989,3.1903
17.8152,843,2.7194
17.8195,638,2.0581
17.8239,499,1.6097
17.8282,467,1.5065
17.8326,471,1.5194
17.8369,451,1.4548
17.8412,428,1.3806
17.8455,440,1.4194
17.8499,477,1.5387
17.8542,481,1.5516
17.8585,446,1.4387
17.8627,428,1.3806
17.8670,451,1.4548
17.8713,475,1.5323
17.8756,472,1.5226
17.8799,440,1.4194
17.8842,436,1.4065
17.8885,472,1.5226
17.8928,490,1.5806
17.8972,467,1.5065
17.9014,442,1.4258
17.9057,454,1.4645
17.9101,491,1.5839
17.9144,499,1.6097
17.9187,465,1.5000
17.9230,450,1.4516
17.9273,480,1.5484
17.9316,508,1.6387
17.9359,503,1.6226
17.9402,469,1.5129
17.9445,467,1.5065
17.9488,505,1.6290
17.9532,519,1.6742
17.9575,498,1.6065
17.9619,480,1.5484
17.9662,499,1.6097
17.9705,533,1.7194
17.9749,540,1.7419
17.9792,508,1.6387
17.9835,500,1.6129
17.9878,534,1.7226
17.9922,562,1.8129
17.9965,556,1.7935
18.0009,533,1.7194
18.0052,539,1.7387
18.0095,580,1.8710
18.0139,596,1.9226
18.0182,570,1.8387
18.0225,554,1.7871
18.0269,578,1.8645
18.0312,610,1.9677
18.0355,612,1.9742
18.0399,578,1.8645
18.0442,568,1.8323
18.0485,603,1.9452
18.0528,621,2.0032
18.0571,593,1.9129
18.0614,563,1.8161
18.0657,562,1.8129
18.0701,587,1.8935
18.0743,581,1.8742
18.0787,536,1.7290
18.0830,509,1.6419
18.0872,523,1.6871
18.0915,539,1.7387
18.0958,523,1.6871
18.1002,478,1.5419
18.1045,462,1.4903
18.1087,488,1.5742
18.1130,500,1.6129
18.1173,474,1.5290
18.1216,449,1.4484
18.1259,459,1.4806
18.1302,491,1.5839
18.1345,494,1.5935
18.1388,461,1.4871
18.1431,448,1.4452
18.1474,473,1.5258
18.1518,498,1.6065
18.1561,491,1.5839
18.1604,461,1.4871
18.1648,463,1.4935
18.1691,502,1.6194
18.1734,519,1.6742
18.1778,493,1.5903
18.1821,471,1.5194
18.1864,483,1.5581
18.1911,514,1.6581
18.1955,512,1.6516
18.2002,477,1.5387
18.2046,471,1.5194
18.2091,506,1.6323
18.2134,520,1.6774
18.2178,493,1.5903
18.2221,469,1.5129
18.2265,481,1.5516
18.2308,510,1.6452
18.2351,510,1.6452
18.2394,474,1.5290
18.2438,461,1.4871
18.2481,490,1.5806
18.2525,509,1.6419
18.2568,492,1.5871
18.2611,460,1.4839
18.2654,467,1.5065
18.2697,500,1.6129
18.2740,510,1.6452
18.2783,479,1.5452
18.2826,458,1.4774
18.2869,479,1.5452
18.2912,508,1.6387
18.2955,506,1.6323
18.2998,467,1.5065
18.3041,456,1.4710
18.3084,487,1.5710
18.3127,507,1.6355
18.3170,492,1.5871
18.3212,464,1.4968
18.3256,468,1.5097
18.3298,503,1.6226
18.3341,511,1.6484
18.3384,479,1.5452
18.3427,461,1.4871
18.3471,485,1.5645
18.3514,510,1.6452
18.3558,506,1.6323
18.3602,470,1.5161
18.3645,463,1.4935
18.3689,499,1.6097
18.3732,516,1.6645
18.3775,492,1.5871
18.3818,469,1.5129
18.3862,479,1.5452
18.3905,514,1.6581
18.3948,518,1.6710
18.3992,482,1.5548
18.4035,466,1.5032
18.4078,494,1.5935
18.4122,519,1.6742
18.4165,513,1.6548
18.4208,484,1.5613
18.4252,482,1.5548
18.4296,513,1.6548
18.4339,523,1.6871
18.4383,496,1.6000
18.4426,485,1.5645
18.4469,513,1.6548
18.4513,544,1.7548
18.4556,534,1.7226
18.4599,491,1.5839
18.4642,472,1.5226
18.4685,498,1.6065
18.4728,517,1.6677
18.4771,500,1.6129
18.4814,470,1.5161
18.4857,474,1.5290
18.4900,510,1.6452
18.4943,523,1.6871
18.4986,494,1.5935
18.5040,474,1.5290
18.5085,503,1.6226
18.5128,514,1.6581
18.5171,485,1.5645
18.5214,445,1.4355
18.5257,442,1.4258
18.5301,492,1.5871
18.5344,549,1.7710
18.5387,593,1.9129
18.5430,677,2.1839
18.5473,831,2.6806
18.5516,989,3.1903
18.5559,999,3.2226
18.5602,1001,3.2290
18.5645,999,3.2226
18.5688,972,3.1355
18.5731,834,2.6903
18.5774,670,2.1613
18.5817,527,1.7000
18.5860,451,1.4548
18.5903,453,1.4613
18.5947,456,1.4710
18.5990,426,1.3742
18.6032,413,1.3323
18.6076,443,1.4290
18.6119,469,1.5129
18.6162,465,1.5000
18.6205,430,1.3871
18.6248,424,1.3677
18.6291,457,1.4742
18.6334,474,1.5290
18.6377,450,1.4516
18.6419,427,1.3774
18.6462,438,1.4129
18.6505,475,1.5323
18.6549,481,1.5516
18.6593,447,1.4419
18.6636,434,1.4000
18.6679,465,1.5000
18.6723,489,1.5774
18.6766,479,1.5452
18.6809,448,1.4452
18.6853,451,1.4548
18.6896,490,1.5806
18.6939,506,1.6323
18.6983,480,1.5484
18.7026,462,1.4903
18.7070,478,1.5419
18.7113,510,1.6452
18.7157,514,1.6581
18.7200,483,1.5581
18.7244,477,1.5387
18.7287,512,1.6516
18.7330,534,1.7226
18.7374,520,1.6774
18.7417,496,1.6000
18.7461,508,1.6387
18.7505,549,1.7710
18.7548,562,1.8129
18.7592,533,1.7194
18.7635,521,1.6806
18.7678,551,1.7774
18.7720,580,1.8710
18.7764,581,1.8742
18.7806,552,1.7806
18.7849,551,1.7774
18.7892,588,1.8968
18.7935,607,1.9581
18.7978,584,1.8839
18.8021,559,1.8032
18.8064,570,1.8387
18.8107,606,1.9548
18.8150,607,1.9581
18.8193,564,1.8194
18.8236,540,1.7419
18.8279,559,1.8032
18.8322,575,1.8548
18.8365,554,1.7871
18.8408,507,1.6355
18.8451,490,1.5806
18.8494,513,1.6548
18.8537,517,1.6677
18.8581,482,1.5548
18.8624,449,1.4484
18.8667,453,1.4613
18.8711,482,1.5548
18.8754,483,1.5581
18.8797,445,1.4355
18.8841,429,1.3839
18.8884,462,1.4903
18.8927,486,1.5677
18.8970,473,1.5258
18.9014,441,1.4226
18.9057,446,1.4387
18.9101,483,1.5581
18.9144,493,1.5903
18.9188,460,1.4839
18.9231,444,1.4323
18.9274,469,1.5129
18.9318,500,1.6129
18.9361,499,1.6097
18.9405,461,1.4871
18.9448,449,1.4484
18.9491,483,1.5581
18.9534,500,1.6129
18.9578,478,1.5419
18.9621,452,1.4581
18.9664,459,1.4806
18.9707,494,1.5935
18.9750,504,1.6258
18.9793,469,1.5129
18.9836,450,1.4516
18.9879,475,1.5323
18.9921,501,1.6161
18.9964,497,1.6032
19.0007,462,1.4903
19.0050,451,1.4548
19.0093,483,1.5581
19.0137,499,1.6097
19.0180,477,1.5387
19.0223,454,1.4645
19.0266,461,1.4871
19.0309,491,1.5839
19.0352,495,1.5968
19.0395,463,1.4935
19.0438,451,1.4548
19.0481,476,1.5355
19.0523,497,1.6032
19.0566,486,1.5677
19.0610,451,1.4548
19.0654,449,1.4484
19.0697,485,1.5645
19.0740,500,1.6129
19.0783,472,1.5226
19.0827,452,1.4581
19.0870,466,1.5032
19.0913,500,1.6129
19.0957,502,1.6194
19.1001,465,1.5000
19.1053,457,1.4742
19.1098,498,1.6065
19.1141,511,1.6484
19.1184,485,1.5645
19.1228,465,1.5000
19.1271,478,1.5419
19.1315,507,1.6355
19.1358,505,1.6290
19.1402,470,1.5161
19.1445,458,1.4774
19.1488,489,1.5774
19.1532,511,1.6484
19.1575,495,1.5968
19.1618,465,1.5000
19.1661,468,1.5097
19.1704,505,1.6290
19.1747,514,1.6581
19.1790,486,1.5677
19.1833,472,1.5226
19.1876,494,1.5935
19.1919,523,1.6871
19.1962,518,1.6710
19.2005,486,1.5677
19.2048,482,1.5548
19.2091,524,1.6903
19.2135,546,1.7613
19.2178,524,1.6903
19.2220,491,1.5839
19.2263,487,1.5710
19.2307,513,1.6548
19.2349,520,1.6774
19.2392,486,1.5677
19.2435,467,1.5065
19.2478,493,1.5903
19.2521,523,1.6871
19.2565,519,1.6742
19.2608,482,1.5548
19.2652,472,1.5226
19.2695,505,1.6290
19.2739,518,1.6710
19.2782,485,1.5645
19.2825,449,1.4484
19.2869,451,1.4548
19.2912,492,1.5871
19.2955,536,1.7290
19.2999,571,1.8419
19.3042,647,2.0871
19.3085,800,2.5806
19.3129,957,3.0871
19.3172,999,3.2226
19.3215,999,3.2226
19.3259,1000,3.2258
19.3303,996,3.2129
19.3346,897,2.8935
19.3389,714,2.3032
19.3433,568,1.8323
19.3476,491,1.5839
19.3519,472,1.5226
19.3563,455,1.4677
19.3606,423,1.3645
19.3649,418,1.3484
19.3692,456,1.4710
19.3735,479,1.5452
19.3778,457,1.4742
19.3821,425,1.3710
19.3864,429,1.3839
19.3907,465,1.5000
19.3950,479,1.5452
19.3993,446,1.4387
19.4043,426,1.3742
19.4087,457,1.4742
19.4131,480,1.5484
19.4174,468,1.5097
19.4217,437,1.4097
19.4260,442,1.4258
19.4303,480,1.5484
19.4346,492,1.5871
19.4389,467,1.5065
19.4432,448,1.4452
19.4475,467,1.5065
19.4518,502,1.6194
19.4561,505,1.6290
19.4604,471,1.5194
19.4647,463,1.4935
19.4690,498,1.6065
19.4733,521,1.6806
19.4776,508,1.6387
19.4819,483,1.5581
19.4862,486,1.5677
19.4905,520,1.6774
19.4948,533,1.7194
19.4991,505,1.6290
19.5033,491,1.5839
19.5076,516,1.6645
19.5119,551,1.7774
19.5163,557,1.7968
19.5206,525,1.6935
19.5249,521,1.6806
19.5292,559,1.8032
19.5335,584,1.8839
19.5378,571,1.8419
19.5421,547,1.7645
19.5464,553,1.7839
19.5506,593,1.9129
19.5549,607,1.9581
19.5594,576,1.8581
19.5637,559,1.8032
19.5680,583,1.8806
19.5723,611,1.9710
19.5767,604,1.9484
19.5810,568,1.8323
19.5854,555,1.7903
19.5897,582,1.8774
19.5940,588,1.8968
19.5986,551,1.7774
19.6029,512,1.6516
19.6072,512,1.6516
19.6115,533,1.7194
19.6158,526,1.6968
19.6202,481,1.5516
19.6245,460,1.4839
19.6288,485,1.5645
19.6331,502,1.6194
19.6374,486,1.5677
19.6417,451,1.4548
19.6460,449,1.4484
19.6502,487,1.5710
19.6545,502,1.6194
19.6588,474,1.5290
19.6631,451,1.4548
19.6674,464,1.4968
19.6717,497,1.6032
19.6760,499,1.6097
19.6802,465,1.5000
19.6845,457,1.4742
19.6888,487,1.5710
19.6931,512,1.6516
19.6974,503,1.6226
19.7017,470,1.5161
19.7059,468,1.5097
19.7102,505,1.6290
19.7145,520,1.6774
19.7188,491,1.5839
19.7231,466,1.5032
19.7274,477,1.5387
19.7317,511,1.6484
19.7360,514,1.6581
19.7402,480,1.5484
19.7445,466,1.5032
19.7488,495,1.5968
19.7531,515,1.6613
19.7574,503,1.6226
19.7617,468,1.5097
19.7660,468,1.5097
19.7702,502,1.6194
19.7745,512,1.6516
19.7788,484,1.5613
19.7831,460,1.4839
19.7875,472,1.5226
19.7918,505,1.6290
19.7960,509,1.6419
19.8003,473,1.5258
19.8047,459,1.4806
19.8090,488,1.5742
19.8133,508,1.6387
19.8176,495,1.5968
19.8219,463,1.4935
19.8262,465,1.5000
19.8305,501,1.6161
19.8348,514,1.6581
19.8391,489,1.5774
19.8434,465,1.5000
19.8477,479,1.5452
19.8520,507,1.6355
19.8563,507,1.6355
19.8606,472,1.5226
19.8649,462,1.4903
19.8692,496,1.6000
19.8735,516,1.6645
19.8778,498,1.6065
19.8821,467,1.5065
19.8864,469,1.5129
19.8907,506,1.6323
19.8950,517,1.6677
19.8993,489,1.5774
19.9036,470,1.5161
19.9079,491,1.5839
19.9122,520,1.6774
19.9165,516,1.6645
19.9208,480,1.5484
19.9252,469,1.5129
19.9295,499,1.6097
19.9338,519,1.6742
19.9381,501,1.6161
19.9424,478,1.5419
19.9467,490,1.5806
19.9510,527,1.7000
19.9553,535,1.7258
19.9596,500,1.6129
19.9644,483,1.5581
19.9687,513,1.6548
19.9730,541,1.7452
19.9773,538,1.7355
19.9816,505,1.6290
19.9859,495,1.5968
19.9903,519,1.6742
19.9945,525,1.6935
19.9989,495,1.5968
20.0033,472,1.5226
20.0077,489,1.5774
20.0121,520,1.6774
20.0165,517,1.6677
20.0210,486,1.5677
20.0255,482,1.5548
20.0301,516,1.6645
20.0346,523,1.6871
20.0393,484,1.5613
20.0440,454,1.4645
20.0484,467,1.5065
20.0528,491,1.5839
20.0571,508,1.6387
20.0614,528,1.7032
20.0658,602,1.9419
20.0701,746,2.4065
20.0744,900,2.9032
20.0787,997,3.2161
20.0829,1001,3.2290
20.0872,1001,3.2290
20.0915,1001,3.2290
20.0957,995,3.2097
20.1000,855,2.7581
20.1043,661,2.1323
20.1085,540,1.7419
20.1128,489,1.5774
20.1172,461,1.4871
20.1214,429,1.3839
20.1257,428,1.3806
20.1300,466,1.5032
20.1342,481,1.5516
20.1385,456,1.4710
20.1428,427,1.3774
20.1470,431,1.3903
20.1513,466,1.5032
20.1556,477,1.5387
20.1598,445,1.4355
20.1641,427,1.3774
20.1684,451,1.4548
20.1727,479,1.5452
20.1771,475,1.5323
20.1814,443,1.4290
20.1857,441,1.4226
20.1901,479,1.5452
20.1945,496,1.6000
20.1988,476,1.5355
20.2031,454,1.4645
20.2074,461,1.4871
20.2118,494,1.5935
20.2161,502,1.6194
20.2205,474,1.5290
20.2248,462,1.4903
20.2291,494,1.5935
20.2334,518,1.6710
20.2378,511,1.6484
20.2421,480,1.5484
20.2464,484,1.5613
20.2508,523,1.6871
20.2551,535,1.7258
20.2594,507,1.6355
20.2638,493,1.5903
20.2681,516,1.6645
20.2724,552,1.7806
20.2768,558,1.8000
20.2810,526,1.6968
20.2853,524,1.6903
20.2896,562,1.8129
20.2939,587,1.8935
20.2982,576,1.8581
20.3027,551,1.7774
20.3070,560,1.8065
20.3114,601,1.9387
20.3157,610,1.9677
20.3201,578,1.8645
20.3244,566,1.8258
20.3287,592,1.9097
20.3330,615,1.9839
20.3373,607,1.9581
20.3416,569,1.8355
20.3459,556,1.7935
20.3502,583,1.8806
20.3545,594,1.9161
20.3589,563,1.8161
20.3631,527,1.7000
20.3674,522,1.6839
20.3717,544,1.7548
20.3760,537,1.7323
20.3803,493,1.5903
20.3846,469,1.5129
20.3889,486,1.5677
20.3932,503,1.6226
20.3975,491,1.5839
20.4018,455,1.4677
20.4061,447,1.4419
20.4104,484,1.5613
20.4147,503,1.6226
20.4190,479,1.5452
20.4233,451,1.4548
20.4276,460,1.4839
20.4319,496,1.6000
20.4362,500,1.6129
20.4405,467,1.5065
20.4447,452,1.4581
20.4490,483,1.5581
20.4533,510,1.6452
20.4576,504,1.6258
20.4619,471,1.5194
20.4662,469,1.5129
20.4705,507,1.6355
20.4748,524,1.6903
20.4791,498,1.6065
20.4835,471,1.5194
20.4878,480,1.5484
20.4921,514,1.6581
20.4965,519,1.6742
20.5008,483,1.5581
20.5051,468,1.5097
20.5094,496,1.6000
20.5138,519,1.6742
20.5181,505,1.6290
20.5224,473,1.5258
20.5267,473,1.5258
20.5310,508,1.6387
20.5353,517,1.6677
20.5396,485,1.5645
20.5439,461,1.4871
20.5482,476,1.5355
20.5525,506,1.6323
20.5568,508,1.6387
20.5611,474,1.5290
20.5654,464,1.4968
20.5697,494,1.5935
20.5740,512,1.6516
20.5783,499,1.6097
20.5826,469,1.5129
20.5870,468,1.5097
20.5912,506,1.6323
20.5955,518,1.6710
20.5998,486,1.5677
20.6041,465,1.5000
20.6084,482,1.5548
20.6127,512,1.6516
20.6170,514,1.6581
20.6213,481,1.5516
20.6256,471,1.5194
20.6300,500,1.6129
20.6343,516,1.6645
20.6386,498,1.6065
20.6430,469,1.5129
20.6473,477,1.5387
20.6516,512,1.6516
20.6560,520,1.6774
20.6603,488,1.5742
20.6646,469,1.5129
20.6689,494,1.5935
20.6733,518,1.6710
20.6776,515,1.6613
20.6819,482,1.5548
20.6863,476,1.5355
20.6906,509,1.6419
20.6949,524,1.6903
20.6992,497,1.6032
20.7036,474,1.5290
20.7079,493,1.5903
20.7122,534,1.7226
20.7166,537,1.7323
20.7209,500,1.6129
20.7252,483,1.5581
20.7296,517,1.6677
20.7339,548,1.7677
20.7383,542,1.7484
20.7426,508,1.6387
20.7469,500,1.6129
20.7513,526,1.6968
20.7556,530,1.7097
20.7599,496,1.6000
20.7642,475,1.5323
20.7686,493,1.5903
20.7729,522,1.6839
20.7772,522,1.6839
20.7815,489,1.5774
20.7858,480,1.5484
20.7902,514,1.6581
20.7944,531,1.7129
20.7987,512,1.6516
20.8030,477,1.5387
20.8073,471,1.5194
20.8116,492,1.5871
20.8159,494,1.5935
20.8202,476,1.5355
20.8245,507,1.6355
20.8288,604,1.9484
20.8331,728,2.3484
20.8374,855,2.7581
20.8417,959,3.0935
20.8460,1001,3.2290
20.8502,1002,3.2323
20.8545,1002,3.2323
20.8588,997,3.2161
20.8631,871,2.8097
20.8674,702,2.2645
20.8717,593,1.9129
20.8760,509,1.6419
20.8804,443,1.4290
20.8847,423,1.3645
20.8890,451,1.4548
20.8934,480,1.5484
20.8977,474,1.5290
20.9022,437,1.4097
20.9066,432,1.3935
20.9110,468,1.5097
20.9154,482,1.5548
20.9197,458,1.4774
20.9240,437,1.4097
20.9286,448,1.4452
20.9330,481,1.5516
20.9373,480,1.5484
20.9416,448,1.4452
20.9459,443,1.4290
20.9502,479,1.5452
20.9545,502,1.6194
20.9587,486,1.5677
20.9630,455,1.4677
20.9673,456,1.4710
20.9716,492,1.5871
20.9759,504,1.6258
20.9802,477,1.5387
20.9844,462,1.4903
20.9887,484,1.5613
20.9930,515,1.6613
20.9973,518,1.6710
21.0016,486,1.5677
21.0059,479,1.5452
21.0102,514,1.6581
21.0145,539,1.7387
21.0188,525,1.6935
21.0231,498,1.6065
21.0274,507,1.6355
21.0317,545,1.7581
21.0360,559,1.8032
21.0403,534,1.7226
21.0446,521,1.6806
21.0489,547,1.7645
21.0531,583,1.8806
21.0575,587,1.8935
21.0617,558,1.8000
21.0660,555,1.7903
21.0703,591,1.9065
21.0747,613,1.9774
21.0790,598,1.9290
21.0834,569,1.8355
21.0877,577,1.8613
21.0920,617,1.9903
21.0964,626,2.0194
21.1007,592,1.9097
21.1050,572,1.8452
21.1094,591,1.9065
21.1137,606,1.9548
21.1180,593,1.9129
21.1224,549,1.7710
21.1267,533,1.7194
21.1310,556,1.7935
21.1354,559,1.8032
21.1397,520,1.6774
21.1440,484,1.5613
21.1484,486,1.5677
21.1527,510,1.6452
21.1570,506,1.6323
21.1613,465,1.5000
21.1657,448,1.4452
21.1700,477,1.5387
21.1744,497,1.6032
21.1787,486,1.5677
21.1830,456,1.4710
21.1873,456,1.4710
21.1916,491,1.5839
21.1959,502,1.6194
21.2034,460,1.4839
21.2079,469,1.5129
21.2123,504,1.6258
21.2166,512,1.6516
21.2209,481,1.5516
21.2251,468,1.5097
21.2294,494,1.5935
21.2337,517,1.6677
21.2380,509,1.6419
21.2424,475,1.5323
21.2467,470,1.5161
21.2510,504,1.6258
21.2553,519,1.6742
21.2595,495,1.5968
21.2638,469,1.5129
21.2681,477,1.5387
21.2724,509,1.6419
21.2768,513,1.6548
21.2811,477,1.5387
21.2854,460,1.4839
21.2897,485,1.5645
21.2940,509,1.6419
21.2982,502,1.6194
21.3025,470,1.5161
21.3068,464,1.4968
21.3111,498,1.6065
21.3154,513,1.6548
21.3197,488,1.5742
21.3240,462,1.4903
21.3283,470,1.5161
21.3326,505,1.6290
21.3369,511,1.6484
21.3412,476,1.5355
21.3455,461,1.4871
21.3498,489,1.5774
21.3541,512,1.6516
21.3584,504,1.6258
21.3627,469,1.5129
21.3670,464,1.4968
21.3713,496,1.6000
21.3755,510,1.6452
21.3798,486,1.5677
21.3842,462,1.4903
21.3885,474,1.5290
21.3929,509,1.6419
21.3972,514,1.6581
21.4015,480,1.5484
21.4059,465,1.5000
21.4102,496,1.6000
21.4146,515,1.6613
21.4189,501,1.6161
21.4232,471,1.5194
21.4276,474,1.5290
21.4319,512,1.6516
21.4362,524,1.6903
21.4406,495,1.5968
21.4449,476,1.5355
21.4492,494,1.5935
21.4535,517,1.6677
21.4579,512,1.6516
21.4622,479,1.5452
21.4665,470,1.5161
21.4709,507,1.6355
21.4752,530,1.7097
21.4795,510,1.6452
21.4839,484,1.5613
21.4882,487,1.5710
21.4925,522,1.6839
21.4967,535,1.7258
21.5010,515,1.6613
21.5053,501,1.6161
21.5096,522,1.6839
21.5139,538,1.7355
21.5182,523,1.6871
21.5225,478,1.5419
21.5268,468,1.5097
21.5311,506,1.6323
21.5354,526,1.6968
21.5397,503,1.6226
21.5440,478,1.5419
21.5483,486,1.5677
21.5526,519,1.6742
21.5569,524,1.6903
21.5611,491,1.5839
21.5654,470,1.5161
21.5697,489,1.5774
21.5740,505,1.6290
21.5783,491,1.5839
21.5826,456,1.4710
21.5870,479,1.5452
21.5913,576,1.8581
21.5956,679,2.1903
21.5999,767,2.4742
21.6043,870,2.8065
21.6086,992,3.2000
21.6130,1001,3.2290
21.6173,999,3.2226
21.6216,988,3.1871
21.6260,864,2.7871
21.6303,742,2.3935
21.6346,640,2.0645
21.6390,523,1.6871
21.6433,426,1.3742
21.6476,406,1.3097
21.6520,445,1.4355
21.6563,461,1.4871
21.6606,434,1.4000
21.6649,418,1.3484
21.6693,441,1.4226
21.6736,472,1.5226
21.6779,472,1.5226
21.6822,438,1.4129
21.6866,429,1.3839
21.6909,461,1.4871
21.6952,480,1.5484
21.6995,462,1.4903
21.7037,439,1.4161
21.7080,446,1.4387
21.7123,481,1.5516
21.7167,489,1.5774
21.7210,459,1.4806
21.7253,443,1.4290
21.7296,468,1.5097
21.7339,494,1.5935
21.7389,483,1.5581
21.7432,455,1.4677
21.7475,459,1.4806
21.7518,501,1.6161
21.7561,518,1.6710
21.7604,488,1.5742
21.7647,466,1.5032
21.7690,482,1.5548
21.7733,516,1.6645
21.7776,522,1.6839
21.7819,491,1.5839
21.7862,483,1.5581
21.7905,516,1.6645
21.7948,541,1.7452
21.7991,531,1.7129
21.8036,507,1.6355
21.8080,516,1.6645
21.8124,556,1.7935
21.8167,571,1.8419
21.8210,543,1.7516
21.8253,533,1.7194
21.8296,562,1.8129
21.8339,592,1.9097
21.8382,589,1.9000
21.8425,553,1.7839
21.8468,552,1.7806
21.8511,590,1.9032
21.8554,611,1.9710
21.8597,591,1.9065
21.8640,565,1.8226
21.8683,568,1.8323
21.8726,597,1.9258
21.8770,594,1.9161
21.8819,548,1.7677
21.8862,524,1.6903
21.8905,543,1.7516
21.8948,554,1.7871
21.8991,529,1.7065
21.9034,489,1.5774
21.9076,476,1.5355
21.9121,498,1.6065
21.9164,500,1.6129
21.9207,462,1.4903
21.9250,439,1.4161
21.9293,455,1.4677
21.9336,484,1.5613
21.9379,480,1.5484
21.9422,443,1.4290
21.9465,433,1.3968
21.9508,466,1.5032
21.9551,487,1.5710
21.9594,473,1.5258
21.9637,444,1.4323
21.9680,447,1.4419
21.9723,483,1.5581
21.9765,492,1.5871
21.9809,462,1.4903
21.9851,446,1.4387
21.9895,470,1.5161
21.9938,500,1.6129
21.9981,494,1.5935
22.0024,456,1.4710
22.0068,447,1.4419
22.0111,481,1.5516
22.0154,501,1.6161
22.0198,480,1.5484
22.0241,452,1.4581
22.0285,457,1.4742
22.0328,491,1.5839
22.0371,496,1.6000
22.0414,462,1.4903
22.0458,443,1.4290
22.0501,469,1.5129
22.0544,493,1.5903
22.0587,485,1.5645
22.0630,452,1.4581
22.0673,446,1.4387
22.0715,478,1.5419
22.0758,491,1.5839
22.0801,465,1.5000
22.0845,442,1.4258
22.0888,454,1.4645
22.0930,484,1.5613
22.0978,483,1.5581
22.1045,435,1.4032
22.1090,447,1.4419
22.1133,480,1.5484
22.1176,487,1.5710
22.1219,455,1.4677
22.1262,440,1.4194
22.1305,465,1.5000
22.1348,484,1.5613
22.1391,471,1.5194
22.1434,441,1.4226
22.1477,444,1.4323
22.1520,480,1.5484
22.1562,490,1.5806
22.1605,461,1.4871
22.1648,440,1.4194
22.1692,456,1.4710
22.1734,490,1.5806
22.1777,494,1.5935
22.1820,456,1.4710
22.1862,439,1.4161
22.1906,466,1.5032
22.1948,486,1.5677
22.1991,474,1.5290
22.2033,443,1.4290
22.2076,443,1.4290
22.2119,480,1.5484
22.2161,495,1.5968
22.2204,468,1.5097
22.2246,443,1.4290
22.2289,453,1.4613
22.2331,487,1.5710
22.2374,493,1.5903
22.2416,461,1.4871
22.2459,451,1.4548
22.2502,479,1.5452
22.2544,503,1.6226
22.2587,493,1.5903
22.2630,460,1.4839
22.2672,459,1.4806
22.2715,501,1.6161
22.2757,522,1.6839
22.2800,496,1.6000
22.2843,462,1.4903
22.2891,461,1.4871
22.2935,485,1.5645
22.2978,484,1.5613
22.3020,451,1.4548
22.3064,440,1.4194
22.3107,468,1.5097
22.3150,490,1.5806
22.3193,479,1.5452
22.3236,447,1.4419
22.3279,447,1.4419
22.3322,481,1.5516
22.3365,487,1.5710
22.3408,449,1.4484
22.3452,415,1.3387
22.3495,424,1.3677
22.3538,463,1.4935
22.3581,502,1.6194
22.3624,533,1.7194
22.3674,626,2.0194
22.3717,787,2.5387
22.3760,944,3.0452
22.3803,998,3.2194
22.3846,1001,3.2290
22.3888,1002,3.2323
22.3933,993,3.2032
22.3975,873,2.8161
22.4018,676,2.1806
22.4060,521,1.6806
22.4103,451,1.4548
22.4146,439,1.4161
22.4189,428,1.3806
22.4232,393,1.2677
22.4275,389,1.2548
22.4317,427,1.3774
22.4360,445,1.4355
22.4403,417,1.3452
22.4446,387,1.2484
22.4489,392,1.2645
22.4532,428,1.3806
22.4575,435,1.4032
22.4618,405,1.3065
22.4660,390,1.2581
22.4703,416,1.3419
22.4746,446,1.4387
22.4789,443,1.4290
22.4832,406,1.3097
22.4875,404,1.3032
22.4917,442,1.4258
22.4961,462,1.4903
22.5003,438,1.4129
22.5046,414,1.3355
22.5089,423,1.3645
22.5132,460,1.4839
22.5175,470,1.5161
22.5217,440,1.4194
22.5260,425,1.3710
22.5303,451,1.4548
22.5345,480,1.5484
22.5388,478,1.5419
22.5431,446,1.4387
22.5474,442,1.4258
22.5523,485,1.5645
22.5566,505,1.6290
22.5609,481,1.5516
22.5651,459,1.4806
22.5694,476,1.5355
22.5737,513,1.6548
22.5780,523,1.6871
22.5822,498,1.6065
22.5865,493,1.5903
22.5907,524,1.6903
22.5950,548,1.7677
22.5993,543,1.7516
22.6036,516,1.6645
22.6080,522,1.6839
22.6123,561,1.8097
22.6166,576,1.8581
22.6209,552,1.7806
22.6252,532,1.7161
22.6294,551,1.7774
22.6342,587,1.8935
22.6385,582,1.8774
22.6428,541,1.7452
22.6471,522,1.6839
22.6513,544,1.7548
22.6556,555,1.7903
22.6599,526,1.6968
22.6642,485,1.5645
22.6685,477,1.5387
22.6727,502,1.6194
22.6770,503,1.6226
22.6813,463,1.4935
22.6856,434,1.4000
22.6899,443,1.4290
22.6941,463,1.4935
22.6985,456,1.4710
22.7038,414,1.3355
22.7082,415,1.3387
22.7126,454,1.4645
22.7169,467,1.5065
22.7212,436,1.4065
22.7254,415,1.3387
22.7297,435,1.4032
22.7340,469,1.5129
22.7382,472,1.5226
22.7425,439,1.4161
22.7468,429,1.3839
22.7511,461,1.4871
22.7553,487,1.5710
22.7596,478,1.5419
22.7639,445,1.4355
22.7682,440,1.4194
22.7724,476,1.5355
22.7767,492,1.5871
22.7816,460,1.4839
22.7859,443,1.4290
22.7902,468,1.5097
22.7945,496,1.6000
22.7988,488,1.5742
22.8031,450,1.4516
22.8075,444,1.4323
22.8118,478,1.5419
22.8161,494,1.5935
22.8203,471,1.5194
22.8246,444,1.4323
22.8289,449,1.4484
22.8331,485,1.5645
22.8374,495,1.5968
22.8416,464,1.4968
22.8459,443,1.4290
22.8502,462,1.4903
22.8544,489,1.5774
22.8591,482,1.5548
22.8634,447,1.4419
22.8677,443,1.4290
22.8719,478,1.5419
22.8761,499,1.6097
22.8804,477,1.5387
22.8847,446,1.4387
22.8890,450,1.4516
22.8933,487,1.5710
22.8976,498,1.6065
22.9018,463,1.4935
22.9061,443,1.4290
22.9104,465,1.5000
22.9147,493,1.5903
22.9189,488,1.5742
22.9232,455,1.4677
22.9275,449,1.4484
22.9317,483,1.5581
22.9360,499,1.6097
22.9403,480,1.5484
22.9446,451,1.4548
22.9489,456,1.4710
22.9531,496,1.6000
22.9574,506,1.6323
22.9616,475,1.5323
22.9659,458,1.4774
22.9702,481,1.5516
22.9745,511,1.6484
22.9788,509,1.6419
22.9831,471,1.5194
22.9874,463,1.4935
22.9918,497,1.6032
22.9961,514,1.6581
23.0005,493,1.5903
23.0053,463,1.4935
23.0098,478,1.5419
23.0142,516,1.6645
23.0185,522,1.6839
23.0228,488,1.5742
23.0271,475,1.5323
23.0314,509,1.6419
23.0357,530,1.7097
23.0400,520,1.6774
23.0443,496,1.6000
23.0487,495,1.5968
23.0530,526,1.6968
23.0573,530,1.7097
23.0616,493,1.5903
23.0658,468,1.5097
23.0701,484,1.5613
23.0745,513,1.6548
23.0787,514,1.6581
23.0830,483,1.5581
23.0873,477,1.5387
23.0917,507,1.6355
23.0959,521,1.6806
23.1003,501,1.6161
23.1046,471,1.5194
23.1089,468,1.5097
23.1132,492,1.5871
23.1175,492,1.5871
23.1218,459,1.4806
23.1261,462,1.4903
23.1304,539,1.7387
23.1347,646,2.0839
23.1390,748,2.4129
23.1433,847,2.7323
23.1476,980,3.1613
23.1519,1001,3.2290
23.1562,1001,3.2290
23.1604,1002,3.2323
23.1647,982,3.1677
23.1690,831,2.6806
23.1732,693,2.2355
23.1775,565,1.8226
23.1817,456,1.4710
23.1860,414,1.3355
23.1903,435,1.4032
23.1945,470,1.5161
23.1988,475,1.5323
23.2031,441,1.4226
23.2073,430,1.3871
23.2116,458,1.4774
23.2159,475,1.5323
23.2202,459,1.4806
23.2245,428,1.3806
23.2287,431,1.3903
23.2330,469,1.5129
23.2373,480,1.5484
23.2415,449,1.4484
23.2458,431,1.3903
23.2501,452,1.4581
23.2544,487,1.5710
23.2587,486,1.5677
23.2630,450,1.4516
23.2672,443,1.4290
23.2715,477,1.5387
23.2757,498,1.6065
23.2800,490,1.5806
23.2843,463,1.4935
23.2885,464,1.4968
23.2928,502,1.6194
23.2971,518,1.6710
23.3014,492,1.5871
23.3057,473,1.5258
23.3100,490,1.5806
23.3143,524,1.6903
23.3186,529,1.7065
23.3229,494,1.5935
23.3272,488,1.5742
23.3315,525,1.6935
23.3359,549,1.7710
23.3403,536,1.7290
23.3446,510,1.6452
23.3489,522,1.6839
23.3532,566,1.8258
23.3575,582,1.8774
23.3618,557,1.7968
23.3661,542,1.7484
23.3704,566,1.8258
23.3747,598,1.9290
23.3790,599,1.9323
23.3833,568,1.8323
23.3876,564,1.8194
23.3919,599,1.9323
23.3962,621,2.0032
23.4005,603,1.9452
23.4048,574,1.8516
23.4090,575,1.8548
23.4133,606,1.9548
23.4175,608,1.9613
23.4218,565,1.8226
23.4261,533,1.7194
23.4303,541,1.7452
23.4346,561,1.8097
23.4389,548,1.7677
23.4431,500,1.6129
23.4474,479,1.5452
23.4517,501,1.6161
23.4559,512,1.6516
23.4602,492,1.5871
23.4645,456,1.4710
23.4687,451,1.4548
23.4730,484,1.5613
23.4773,494,1.5935
23.4815,466,1.5032
23.4858,445,1.4355
23.4901,458,1.4774
23.4943,492,1.5871
23.4986,494,1.5935
23.5029,460,1.4839
23.5077,452,1.4581
23.5120,487,1.5710
23.5164,508,1.6387
23.5207,491,1.5839
23.5250,461,1.4871
23.5293,467,1.5065
23.5336,508,1.6387
23.5379,520,1.6774
23.5422,489,1.5774
23.5465,468,1.5097
23.5508,488,1.5742
23.5551,514,1.6581
23.5594,509,1.6419
23.5636,473,1.5258
23.5680,468,1.5097
23.5722,504,1.6258
23.5765,521,1.6806
23.5809,496,1.6000
23.5852,467,1.5065
23.5895,473,1.5258
23.5937,507,1.6355
23.5980,512,1.6516
23.6024,477,1.5387
23.6069,461,1.4871
23.6113,490,1.5806
23.6156,511,1.6484
23.6200,498,1.6065
23.6243,465,1.5000
23.6286,464,1.4968
23.6329,500,1.6129
23.6372,511,1.6484
23.6415,484,1.5613
23.6458,460,1.4839
23.6501,474,1.5290
23.6544,508,1.6387
23.6587,510,1.6452
23.6631,475,1.5323
23.6674,461,1.4871
23.6717,491,1.5839
23.6760,513,1.6548
23.6802,501,1.6161
23.6846,467,1.5065
23.6888,466,1.5032
23.6931,502,1.6194
23.6974,513,1.6548
23.7018,482,1.5548
23.7062,464,1.4968
23.7105,482,1.5548
23.7148,512,1.6516
23.7190,512,1.6516
23.7233,475,1.5323
23.7277,462,1.4903
23.7319,495,1.5968
23.7362,518,1.6710
23.7405,505,1.6290
23.7448,472,1.5226
23.7491,475,1.5323
23.7534,511,1.6484
23.7577,520,1.6774
23.7620,488,1.5742
23.7663,468,1.5097
23.7706,486,1.5677
23.7749,519,1.6742
23.7792,525,1.6935
23.7835,494,1.5935
23.7878,485,1.5645
23.7921,511,1.6484
23.7964,527,1.7000
23.8007,512,1.6516
23.8050,490,1.5806
23.8093,500,1.6129
23.8136,536,1.7290
23.8179,538,1.7355
23.8222,501,1.6161
23.8265,473,1.5258
23.8308,491,1.5839
23.8351,520,1.6774
23.8394,517,1.6677
23.8437,484,1.5613
23.8480,479,1.5452
23.8523,515,1.6613
23.8566,531,1.7129
23.8609,509,1.6419
23.8652,479,1.5452
23.8695,484,1.5613
23.8738,514,1.6581
23.8781,509,1.6419
23.8823,464,1.4968
23.8866,441,1.4226
23.8909,475,1.5323
23.8952,546,1.7613
23.8996,618,1.9935
23.9040,679,2.1903
23.9084,795,2.5645
23.9128,961,3.1000
23.9171,999,3.2226
23.9214,999,3.2226
23.9257,1000,3.2258
23.9301,976,3.1484
23.9344,861,2.7774
23.9387,715,2.3065
23.9430,562,1.8129
23.9473,459,1.4806
23.9516,445,1.4355
23.9559,461,1.4871
23.9602,454,1.4645
23.9645,425,1.3710
23.9688,431,1.3903
23.9732,471,1.5194
23.9775,483,1.5581
23.9818,451,1.4548
23.9860,429,1.3839
23.9903,446,1.4387
23.9947,480,1.5484
23.9990,481,1.5516
24.0033,443,1.4290
24.0077,432,1.3935
24.0120,466,1.5032
24.0163,493,1.5903
24.0206,482,1.5548
24.0248,447,1.4419
24.0291,448,1.4452
24.0334,487,1.5710
24.0376,504,1.6258
24.0419,479,1.5452
24.0461,461,1.4871
24.0505,477,1.5387
24.0548,512,1.6516
24.0591,515,1.6613
24.0634,481,1.5516
24.0677,471,1.5194
24.0720,505,1.6290
24.0763,530,1.7097
24.0806,523,1.6871
24.0849,497,1.6032
24.0892,499,1.6097
24.0935,533,1.7194
24.0978,548,1.7677
24.1021,527,1.7000
24.1064,512,1.6516
24.1107,535,1.7258
24.1151,570,1.8387
24.1194,574,1.8516
24.1237,548,1.7677
24.1280,545,1.7581
24.1323,582,1.8774
24.1366,610,1.9677
24.1409,600,1.9355
24.1452,573,1.8484
24.1495,577,1.8613
24.1538,616,1.9871
24.1581,626,2.0194
24.1624,596,1.9226
24.1667,580,1.8710
24.1710,600,1.9355
24.1753,625,2.0161
24.1796,620,2.0000
24.1839,577,1.8613
24.1882,557,1.7968
24.1925,579,1.8677
24.1968,591,1.9065
24.2011,561,1.8097
24.2054,519,1.6742
24.2097,510,1.6452
24.2140,535,1.7258
24.2182,533,1.7194
24.2225,495,1.5968
24.2268,472,1.5226
24.2311,489,1.5774
24.2353,512,1.6516
24.2396,505,1.6290
24.2438,467,1.5065
24.2481,457,1.4742
24.2524,489,1.5774
24.2567,510,1.6452
24.2609,495,1.5968
24.2652,467,1.5065
24.2695,472,1.5226
24.2738,511,1.6484
24.2780,527,1.7000
24.2823,501,1.6161
24.2866,480,1.5484
24.2908,499,1.6097
24.2951,533,1.7194
24.2994,536,1.7290
24.3036,500,1.6129
24.3080,486,1.5677
24.3123,519,1.6742
24.3166,540,1.7419
24.3209,527,1.7000
24.3252,494,1.5935
24.3295,494,1.5935
24.3338,530,1.7097
24.3381,541,1.7452
24.3424,510,1.6452
24.3467,489,1.5774
24.3510,508,1.6387
24.3553,538,1.7355
24.3596,535,1.7258
24.3639,498,1.6065
24.3682,490,1.5806
24.3726,522,1.6839
24.3769,541,1.7452
24.3812,523,1.6871
24.3855,495,1.5968
24.3897,500,1.6129
24.3940,532,1.7161
24.3983,537,1.7323
24.4027,501,1.6161
24.4070,483,1.5581
24.4113,508,1.6387
24.4156,535,1.7258
24.4198,530,1.7097
24.4241,495,1.5968
24.4284,488,1.5742
24.4326,524,1.6903
24.4369,541,1.7452
24.4412,520,1.6774
24.4454,490,1.5806
24.4497,493,1.5903
24.4540,527,1.7000
24.4582,536,1.7290
24.4625,508,1.6387
24.4667,491,1.5839
24.4710,511,1.6484
24.4752,541,1.7452
24.4795,542,1.7484
24.4838,505,1.6290
24.4880,492,1.5871
24.4923,521,1.6806
24.4965,540,1.7419
24.5008,524,1.6903
24.5053,494,1.5935
24.5097,498,1.6065
24.5140,535,1.7258
24.5183,545,1.7581
24.5225,513,1.6548
24.5268,493,1.5903
24.5311,510,1.6452
24.5353,537,1.7323
24.5396,534,1.7226
24.5438,499,1.6097
24.5481,494,1.5935
24.5524,530,1.7097
24.5566,550,1.7742
24.5609,534,1.7226
24.5651,503,1.6226
24.5694,507,1.6355
24.5737,548,1.7677
24.5779,566,1.8258
24.5822,538,1.7355
24.5865,511,1.6484
24.5907,515,1.6613
24.5950,536,1.7290
24.5993,533,1.7194
24.6037,496,1.6000
24.6079,484,1.5613
24.6123,515,1.6613
24.6165,535,1.7258
24.6208,521,1.6806
24.6251,488,1.5742
24.6294,488,1.5742
24.6337,525,1.6935
24.6380,533,1.7194
24.6423,495,1.5968
24.6466,465,1.5000
24.6509,469,1.5129
24.6552,495,1.5968
24.6595,505,1.6290
24.6638,509,1.6419
24.6681,566,1.8258
24.6724,688,2.2194
24.6767,831,2.6806
24.6810,954,3.0774
24.6853,998,3.2194
24.6896,1002,3.2323
24.6939,1002,3.2323
24.6982,1000,3.2258
24.7025,923,2.9774
24.7068,734,2.3677
24.7111,591,1.9065
24.7154,514,1.6581
24.7197,467,1.5065
24.7240,420,1.3548
24.7283,409,1.3194
24.7326,444,1.4323
24.7369,468,1.5097
24.7412,456,1.4710
24.7455,428,1.3806
24.7498,426,1.3742
24.7541,456,1.4710
24.7584,463,1.4935
24.7627,432,1.3935
24.7670,413,1.3323
24.7713,432,1.3935
24.7756,461,1.4871
24.7799,459,1.4806
24.7842,428,1.3806
24.7885,422,1.3613
24.7928,458,1.4774
24.7971,480,1.5484
24.8014,434,1.4000
24.8096,433,1.3968
24.8139,471,1.5194
24.8182,485,1.5645
24.8225,459,1.4806
24.8267,439,1.4161
24.8310,452,1.4581
24.8353,485,1.5645
24.8395,494,1.5935
24.8438,463,1.4935
24.8481,450,1.4516
24.8523,479,1.5452
24.8566,502,1.6194
24.8608,495,1.5968
24.8651,468,1.5097
24.8694,469,1.5129
24.8736,506,1.6323
24.8779,526,1.6968
24.8821,506,1.6323
24.8864,488,1.5742
24.8907,503,1.6226
24.8949,541,1.7452
24.8992,549,1.7710
24.9034,522,1.6839
24.9077,513,1.6548
24.9120,540,1.7419
24.9164,570,1.8387
24.9207,565,1.8226
24.9250,533,1.7194
24.9292,530,1.7097
24.9335,566,1.8258
24.9378,580,1.8710
24.9421,554,1.7871
24.9464,526,1.6968
24.9507,530,1.7097
24.9550,558,1.8000
24.9593,550,1.7742
24.9636,503,1.6226
24.9679,475,1.5323
24.9722,489,1.5774
24.9765,500,1.6129
24.9808,479,1.5452
24.9850,434,1.4000
24.9894,420,1.3548
24.9937,448,1.4452
24.9980,456,1.4710
25.0023,424,1.3677
25.0066,397,1.2806
25.0109,406,1.3097
25.0152,439,1.4161
25.0196,441,1.4226
25.0240,408,1.3161
25.0285,397,1.2806
25.0329,428,1.3806
25.0447,412,1.3290
25.0491,406,1.3097
25.0534,443,1.4290
25.0577,459,1.4806
25.0621,437,1.4097
25.0664,413,1.3323
25.0707,422,1.3613
25.0750,455,1.4677
25.0793,462,1.4903
25.0836,431,1.3903
25.0878,417,1.3452
25.0921,441,1.4226
25.0964,463,1.4935
25.1007,452,1.4581
25.1050,418,1.3484
25.1094,413,1.3323
25.1137,447,1.4419
25.1179,462,1.4903
25.1222,437,1.4097
25.1264,411,1.3258
25.1307,416,1.3419
25.1349,448,1.4452
25.1392,451,1.4548
25.1434,417,1.3452
25.1477,400,1.2903
25.1519,422,1.3613
25.1562,448,1.4452
25.1604,445,1.4355
25.1647,410,1.3226
25.1689,403,1.3000
25.1731,435,1.4032
25.1774,455,1.4677
25.1816,438,1.4129
25.1858,406,1.3097
25.1901,407,1.3129
25.1944,441,1.4226
25.1986,450,1.4516
25.2028,418,1.3484
25.2071,400,1.2903
25.2113,417,1.3452
25.2156,449,1.4484
25.2199,450,1.4516
25.2242,413,1.3323
25.2285,401,1.2935
25.2328,433,1.3968
25.2371,453,1.4613
25.2414,435,1.4032
25.2457,403,1.3000
25.2500,406,1.3097
25.2543,444,1.4323
25.2586,455,1.4677
25.2629,425,1.3710
25.2672,404,1.3032
25.2715,419,1.3516
25.2758,451,1.4548
25.2805,451,1.4548
25.2849,416,1.3419
25.2892,409,1.3194
25.2935,443,1.4290
25.2978,459,1.4806
25.3021,434,1.4000
25.3064,409,1.3194
25.3108,421,1.3581
25.3150,463,1.4935
25.3193,474,1.5290
25.3236,440,1.4194
25.3279,423,1.3645
25.3322,448,1.4452
25.3365,479,1.5452
25.3408,479,1.5452
25.3451,450,1.4516
25.3494,442,1.4258
25.3537,469,1.5129
25.3580,474,1.5290
25.3623,441,1.4226
25.3666,412,1.3290
25.3709,420,1.3548
25.3752,455,1.4677
25.3796,462,1.4903
25.3839,431,1.3903
25.3882,419,1.3516
25.3925,447,1.4419
25.3967,472,1.5226
25.4011,458,1.4774
25.4079,409,1.3194
25.4132,431,1.3903
25.4177,439,1.4161
25.4220,417,1.3452
25.4263,417,1.3452
25.4306,486,1.5677
25.4349,604,1.9484
25.4392,719,2.3194
25.4440,838,2.7032
25.4483,956,3.0839
25.4526,1001,3.2290
25.4569,999,3.2226
25.4612,997,3.2161
25.4655,874,2.8194
25.4699,698,2.2516
25.4742,579,1.8677
25.4785,483,1.5581
25.4827,405,1.3065
25.4870,369,1.1903
25.4914,385,1.2419
25.4957,424,1.3677
25.4999,430,1.3871
25.5042,394,1.2710
25.5085,382,1.2323
25.5129,413,1.3323
25.5172,433,1.3968
25.5216,421,1.3581
25.5261,389,1.2548
25.5304,392,1.2645
25.5347,432,1.3935
25.5392,439,1.4161
25.5435,413,1.3323
25.5477,397,1.2806
25.5520,420,1.3548
25.5563,450,1.4516
25.5605,451,1.4548
25.5648,420,1.3548
25.5690,413,1.3323
25.5733,445,1.4355
25.5776,467,1.5065
25.5818,453,1.4613
25.5861,426,1.3742
25.5903,432,1.3935
25.5946,473,1.5258
25.5989,488,1.5742
25.6031,460,1.4839
25.6074,445,1.4355
25.6116,463,1.4935
25.6159,498,1.6065
25.6203,503,1.6226
25.6246,471,1.5194
25.6289,466,1.5032
25.6332,501,1.6161
25.6375,524,1.6903
25.6418,514,1.6581
25.6461,491,1.5839
25.6504,501,1.6161
25.6547,544,1.7548
25.6590,565,1.8226
25.6633,541,1.7452
25.6676,525,1.6935
25.6719,546,1.7613
25.6762,579,1.8677
25.6805,580,1.8710
25.6848,549,1.7710
25.6891,548,1.7677
25.6934,583,1.8806
25.6977,602,1.9419
25.7021,583,1.8806
25.7065,553,1.7839
25.7109,555,1.7903
25.7152,583,1.8806
25.7195,583,1.8806
25.7239,543,1.7516
25.7281,518,1.6710
25.7324,535,1.7258
25.7367,548,1.7677
25.7409,532,1.7161
25.7452,484,1.5613
25.7495,466,1.5032
25.7537,490,1.5806
25.7580,502,1.6194
25.7623,476,1.5355
25.7666,444,1.4323
25.7708,445,1.4355
25.7751,480,1.5484
25.7794,488,1.5742
25.7836,457,1.4742
25.7879,440,1.4194
25.7922,464,1.4968
25.7965,496,1.6000
25.8007,497,1.6032
25.8050,462,1.4903
25.8093,454,1.4645
25.8135,489,1.5774
25.8178,512,1.6516
25.8221,496,1.6000
25.8264,469,1.5129
25.8307,474,1.5290
25.8350,512,1.6516
25.8393,524,1.6903
25.8435,491,1.5839
25.8479,469,1.5129
25.8522,489,1.5774
25.8565,519,1.6742
25.8607,517,1.6677
25.8650,482,1.5548
25.8694,476,1.5355
25.8737,511,1.6484
25.8780,525,1.6935
25.8822,502,1.6194
25.8866,476,1.5355
25.8909,481,1.5516
25.8952,517,1.6677
25.8995,523,1.6871
25.9037,489,1.5774
25.9080,469,1.5129
25.9123,492,1.5871
25.9166,516,1.6645
25.9209,510,1.6452
25.9252,477,1.5387
25.9295,471,1.5194
25.9338,506,1.6323
25.9381,526,1.6968
25.9424,506,1.6323
25.9467,480,1.5484
25.9510,486,1.5677
25.9553,519,1.6742
25.9596,526,1.6968
25.9639,495,1.5968
25.9682,480,1.5484
25.9725,505,1.6290
25.9768,531,1.7129
25.9811,525,1.6935
25.9854,489,1.5774
25.9897,482,1.5548
25.9940,516,1.6645
25.9983,533,1.7194
26.0026,513,1.6548
26.0069,488,1.5742
26.0112,495,1.5968
26.0155,528,1.7032
26.0198,533,1.7194
26.0241,500,1.6129
26.0284,484,1.5613
26.0327,510,1.6452
26.0370,533,1.7194
26.0412,528,1.7032
26.0455,495,1.5968
26.0498,491,1.5839
26.0541,525,1.6935
26.0584,541,1.7452
26.0627,517,1.6677
26.0670,490,1.5806
26.0713,502,1.6194
26.0756,543,1.7516
26.0799,556,1.7935
26.0842,523,1.6871
26.0885,507,1.6355
26.0927,529,1.7065
26.0970,557,1.7968
26.1013,559,1.8032
26.1056,531,1.7129
26.1099,524,1.6903
26.1142,552,1.7806
26.1185,563,1.8161
26.1228,530,1.7097
26.1271,501,1.6161
26.1313,510,1.6452
26.1356,544,1.7548
26.1399,549,1.7710
26.1442,518,1.6710
26.1485,504,1.6258
26.1528,528,1.7032
26.1571,553,1.7839
26.1614,547,1.7645
26.1656,509,1.6419
26.1699,497,1.6032
26.1742,521,1.6806
26.1785,526,1.6968
26.1828,499,1.6097
26.1871,492,1.5871
26.1914,547,1.7645
26.1956,656,2.1161
26.1999,763,2.4613
26.2042,863,2.7839
26.2085,984,3.1742
26.2128,1003,3.2355
26.2171,1002,3.2323
26.2214,1002,3.2323
26.2257,997,3.2161
26.2301,896,2.8903
26.2343,756,2.4387
26.2386,622,2.0065
26.2429,506,1.6323
26.2472,450,1.4516
26.2515,458,1.4774
26.2558,494,1.5935
26.2601,507,1.6355
26.2644,478,1.5419
26.2687,464,1.4968
26.2731,488,1.5742
26.2774,508,1.6387
26.2817,497,1.6032
26.2860,464,1.4968
26.2903,463,1.4935
26.2946,499,1.6097
26.2989,512,1.6516
26.3032,485,1.5645
26.3076,466,1.5032
26.3120,484,1.5613
26.3163,519,1.6742
26.3207,523,1.6871
26.3250,488,1.5742
26.3293,476,1.5355
26.3336,510,1.6452
26.3379,534,1.7226
26.3422,523,1.6871
26.3465,495,1.5968
26.3508,497,1.6032
26.3551,532,1.7161
26.3594,546,1.7613
26.3637,519,1.6742
26.3681,504,1.6258
26.3723,524,1.6903
26.3766,557,1.7968
26.3809,561,1.8097
26.3852,530,1.7097
26.3895,522,1.6839
26.3938,555,1.7903
