time_s,adc_raw,voltage
0.0000,318,1.0258
0.0044,344,1.1097
0.0116,330,1.0645
0.0159,313,1.0097
0.0203,327,1.0548
0.0247,355,1.1452
0.0290,359,1.1581
0.0337,334,1.0774
0.0381,327,1.0548
0.0424,355,1.1452
0.0481,368,1.1871
0.0525,344,1.1097
0.0568,328,1.0581
0.0705,364,1.1742
0.0749,341,1.1000
0.0793,343,1.1065
0.0837,373,1.2032
0.0881,381,1.2290
0.0925,355,1.1452
0.0968,345,1.1129
0.1012,363,1.1710
0.1056,382,1.2323
0.1100,378,1.2194
0.1143,353,1.1387
0.1187,350,1.1290
0.1230,380,1.2258
0.1274,393,1.2677
0.1316,372,1.2000
0.1360,355,1.1452
0.1403,370,1.1935
0.1447,396,1.2774
0.1490,401,1.2935
0.1534,373,1.2032
0.1577,361,1.1645
0.1620,386,1.2452
0.1664,407,1.3129
0.1707,397,1.2806
0.1752,375,1.2097
0.1798,381,1.2290
0.1845,412,1.3290
0.1889,419,1.3516
0.1934,389,1.2548
0.1977,380,1.2258
0.2020,404,1.3032
0.2065,425,1.3710
0.2111,411,1.3258
0.2158,390,1.2581
0.2206,402,1.2968
0.2255,428,1.3806
0.2307,422,1.3613
0.2358,400,1.2903
0.2406,413,1.3323
0.2454,439,1.4161
0.2499,438,1.4129
0.2543,411,1.3258
0.2588,410,1.3226
0.2632,440,1.4194
0.2676,454,1.4645
0.2720,436,1.4065
0.2765,423,1.3645
0.2810,441,1.4226
0.2854,464,1.4968
0.2899,463,1.4935
0.2943,445,1.4355
0.2988,450,1.4516
0.3032,494,1.5935
0.3076,514,1.6581
0.3120,488,1.5742
0.3164,460,1.4839
0.3208,470,1.5161
0.3252,493,1.5903
0.3296,485,1.5645
0.3340,450,1.4516
0.3384,438,1.4129
0.3428,466,1.5032
0.3472,481,1.5516
0.3516,461,1.4871
0.3559,443,1.4290
0.3602,452,1.4581
0.3646,482,1.5548
0.3690,487,1.5710
0.3733,460,1.4839
0.3777,445,1.4355
0.3821,464,1.4968
0.3866,474,1.5290
0.3909,453,1.4613
0.3953,433,1.3968
0.3997,462,1.4903
0.4042,550,1.7742
0.4086,642,2.0710
0.4130,732,2.3613
0.4173,847,2.7323
0.4217,983,3.1710
0.4260,1001,3.2290
0.4305,1000,3.2258
0.4348,993,3.2032
0.4392,878,2.8323
0.4436,750,2.4194
0.4479,644,2.0774
0.4523,534,1.7226
0.4566,449,1.4484
0.4609,434,1.4000
0.4652,451,1.4548
0.4696,455,1.4677
0.4740,433,1.3968
0.4783,433,1.3968
0.4827,464,1.4968
0.4870,483,1.5581
0.4914,468,1.5097
0.4958,449,1.4484
0.5002,456,1.4710
0.5045,486,1.5677
0.5089,493,1.5903
0.5132,470,1.5161
0.5176,460,1.4839
0.5219,484,1.5613
0.5263,508,1.6387
0.5306,507,1.6355
0.5350,485,1.5645
0.5393,485,1.5645
0.5436,518,1.6710
0.5480,532,1.7161
0.5524,511,1.6484
0.5567,495,1.5968
0.5611,510,1.6452
0.5654,539,1.7387
0.5698,543,1.7516
0.5742,520,1.6774
0.5785,517,1.6677
0.5829,551,1.7774
0.5873,570,1.8387
0.5916,558,1.8000
0.5960,541,1.7452
0.6003,552,1.7806
0.6047,582,1.8774
0.6090,595,1.9194
0.6133,577,1.8613
0.6176,569,1.8355
0.6219,596,1.9226
0.6262,622,2.0065
0.6305,622,2.0065
0.6348,604,1.9484
0.6392,604,1.9484
0.6435,638,2.0581
0.6478,658,2.1226
0.6521,644,2.0774
0.6564,629,2.0290
0.6607,638,2.0581
0.6651,666,2.1484
0.6694,673,2.1710
0.6737,644,2.0774
0.6780,630,2.0323
0.6824,649,2.0935
0.6867,662,2.1355
0.6911,648,2.0903
0.6954,614,1.9806
0.6998,603,1.9452
0.7041,621,2.0032
0.7084,621,2.0032
0.7128,587,1.8935
0.7171,563,1.8161
0.7214,570,1.8387
0.7258,589,1.9000
0.7302,583,1.8806
0.7346,548,1.7677
0.7389,541,1.7452
0.7433,571,1.8419
0.7476,584,1.8839
0.7519,566,1.8258
0.7563,550,1.7742
0.7606,558,1.8000
0.7650,585,1.8871
0.7693,592,1.9097
0.7737,566,1.8258
0.7780,557,1.7968
0.7824,582,1.8774
0.7867,607,1.9581
0.7911,602,1.9419
0.7954,580,1.8710
0.7998,580,1.8710
0.8041,609,1.9645
0.8085,623,2.0097
0.8128,603,1.9452
0.8172,588,1.8968
0.8215,606,1.9548
0.8258,631,2.0355
0.8302,632,2.0387
0.8346,607,1.9581
0.8390,598,1.9290
0.8433,626,2.0194
0.8476,642,2.0710
0.8520,624,2.0129
0.8564,607,1.9581
0.8607,615,1.9839
0.8651,639,2.0613
0.8694,649,2.0935
0.8738,622,2.0065
0.8781,609,1.9645
0.8825,634,2.0452
0.8868,655,2.1129
0.8911,646,2.0839
0.8955,617,1.9903
0.8998,614,1.9806
0.9041,645,2.0806
0.9084,659,2.1258
0.9128,637,2.0548
0.9171,622,2.0065
0.9215,636,2.0516
0.9259,661,2.1323
0.9302,661,2.1323
0.9346,634,2.0452
0.9389,626,2.0194
0.9433,657,2.1194
0.9476,674,2.1742
0.9520,658,2.1226
0.9563,639,2.0613
0.9607,642,2.0710
0.9650,673,2.1710
0.9694,683,2.2032
0.9738,657,2.1194
0.9781,645,2.0806
0.9825,664,2.1419
0.9869,684,2.2065
0.9913,679,2.1903
0.9956,657,2.1194
1.0000,656,2.1161
1.0043,687,2.2161
1.0087,699,2.2548
1.0131,673,2.1710
1.0174,657,2.1194
1.0218,675,2.1774
1.0261,701,2.2613
1.0305,704,2.2710
1.0348,678,2.1871
1.0392,673,2.1710
1.0435,701,2.2613
1.0479,718,2.3161
1.0523,705,2.2742
1.0566,691,2.2290
1.0609,700,2.2581
1.0652,727,2.3452
1.0696,738,2.3806
1.0739,717,2.3129
1.0783,713,2.3000
1.0827,741,2.3903
1.0870,762,2.4581
1.0914,747,2.4097
1.0957,714,2.3032
1.1001,711,2.2935
1.1044,735,2.3710
1.1088,736,2.3742
1.1131,704,2.2710
1.1175,681,2.1968
1.1218,693,2.2355
1.1262,714,2.3032
1.1305,715,2.3065
1.1349,686,2.2129
1.1392,676,2.1806
1.1436,707,2.2806
1.1479,718,2.3161
1.1523,697,2.2484
1.1566,673,2.1710
1.1610,667,2.1516
1.1653,684,2.2065
1.1696,682,2.2000
1.1740,659,2.1258
1.1783,669,2.1581
1.1826,747,2.4097
1.1870,847,2.7323
1.1913,955,3.0806
1.1957,999,3.2226
1.2000,1004,3.2387
1.2044,1004,3.2387
1.2087,1004,3.2387
1.2130,1002,3.2323
1.2174,1005,3.2419
1.2217,1003,3.2355
1.2261,997,3.2161
1.2305,871,2.8097
1.2355,679,2.1903
1.2398,615,1.9839
1.2442,634,2.0452
1.2485,649,2.0935
1.2529,630,2.0323
1.2572,612,1.9742
1.2615,617,1.9903
1.2658,640,2.0645
1.2702,643,2.0742
1.2746,614,1.9806
1.2790,602,1.9419
1.2833,627,2.0226
1.2877,643,2.0742
1.2920,628,2.0258
1.2964,605,1.9516
1.3007,608,1.9613
1.3050,635,2.0484
1.3094,645,2.0806
1.3137,621,2.0032
1.3180,604,1.9484
1.3224,617,1.9903
1.3267,640,2.0645
1.3311,640,2.0645
1.3355,613,1.9774
1.3398,606,1.9548
1.3442,636,2.0516
1.3485,651,2.1000
1.3529,635,2.0484
1.3573,614,1.9806
1.3616,625,2.0161
1.3660,653,2.1065
1.3705,660,2.1290
1.3748,633,2.0419
1.3792,622,2.0065
1.3835,648,2.0903
1.3879,671,2.1645
1.3923,661,2.1323
1.3967,643,2.0742
1.4011,648,2.0903
1.4054,681,2.1968
1.4097,695,2.2419
1.4141,673,2.1710
1.4185,661,2.1323
1.4228,683,2.2032
1.4272,704,2.2710
1.4315,701,2.2613
1.4359,675,2.1774
1.4403,665,2.1452
1.4447,692,2.2323
1.4491,704,2.2710
1.4535,676,2.1806
1.4579,653,2.1065
1.4622,661,2.1323
1.4666,673,2.1710
1.4710,661,2.1323
1.4753,621,2.0032
1.4797,596,1.9226
1.4840,611,1.9710
1.4884,614,1.9806
1.4927,584,1.8839
1.4971,550,1.7742
1.5015,542,1.7484
1.5058,557,1.7968
1.5102,556,1.7935
1.5146,523,1.6871
1.5190,504,1.6258
1.5233,522,1.6839
1.5277,539,1.7387
1.5321,527,1.7000
1.5365,501,1.6161
1.5408,497,1.6032
1.5452,524,1.6903
1.5495,536,1.7290
1.5538,512,1.6516
1.5582,494,1.5935
1.5625,508,1.6387
1.5668,530,1.7097
1.5712,529,1.7065
1.5756,496,1.6000
1.5802,485,1.5645
1.5846,512,1.6516
1.5890,527,1.7000
1.5934,506,1.6323
1.5977,485,1.5645
1.6021,492,1.5871
1.6065,516,1.6645
1.6109,518,1.6710
1.6153,485,1.5645
1.6197,472,1.5226
1.6241,498,1.6065
1.6285,513,1.6548
1.6328,495,1.5968
1.6372,472,1.5226
1.6416,472,1.5226
1.6460,496,1.6000
1.6504,498,1.6065
1.6548,467,1.5065
1.6592,452,1.4581
1.6635,472,1.5226
1.6683,490,1.5806
1.6726,472,1.5226
1.6771,449,1.4484
1.6815,450,1.4516
1.6859,475,1.5323
1.6903,481,1.5516
1.6947,451,1.4548
1.6991,434,1.4000
1.7035,455,1.4677
1.7079,474,1.5290
1.7123,463,1.4935
1.7166,436,1.4065
1.7210,432,1.3935
1.7254,459,1.4806
1.7297,470,1.5161
1.7341,445,1.4355
1.7384,428,1.3806
1.7428,445,1.4355
1.7471,467,1.5065
1.7515,464,1.4968
1.7558,434,1.4000
1.7602,424,1.3677
1.7646,448,1.4452
1.7690,463,1.4935
1.7734,443,1.4290
1.7777,423,1.3645
1.7821,432,1.3935
1.7865,458,1.4774
1.7908,464,1.4968
1.7952,436,1.4065
1.7995,423,1.3645
1.8038,446,1.4387
1.8081,467,1.5065
1.8136,451,1.4548
1.8185,432,1.3935
1.8228,447,1.4419
1.8272,471,1.5194
1.8315,476,1.5355
1.8358,459,1.4806
1.8406,462,1.4903
1.8450,489,1.5774
1.8493,496,1.6000
1.8536,469,1.5129
1.8580,446,1.4387
1.8623,447,1.4419
1.8666,460,1.4839
1.8710,454,1.4645
1.8754,421,1.3581
1.8797,408,1.3161
1.8840,433,1.3968
1.8884,450,1.4516
1.8927,438,1.4129
1.8975,414,1.3355
1.9019,419,1.3516
1.9070,446,1.4387
1.9113,445,1.4355
1.9156,409,1.3194
1.9202,388,1.2516
1.9250,407,1.3129
1.9294,419,1.3516
1.9338,410,1.3226
1.9381,433,1.3968
1.9424,512,1.6516
1.9468,628,2.0258
1.9511,760,2.4516
1.9554,882,2.8452
1.9597,992,3.2000
1.9649,1001,3.2290
1.9699,999,3.2226
1.9742,896,2.8903
1.9786,702,2.2645
1.9829,566,1.8258
1.9873,474,1.5290
1.9916,410,1.3226
1.9959,361,1.1645
2.0003,350,1.1290
2.0047,381,1.2290
2.0090,401,1.2935
2.0134,386,1.2452
2.0178,365,1.1774
2.0222,367,1.1839
2.0268,392,1.2645
2.0312,397,1.2806
2.0355,370,1.1935
2.0399,359,1.1581
2.0442,382,1.2323
2.0486,399,1.2871
2.0530,386,1.2452
2.0573,367,1.1839
2.0617,371,1.1968
2.0660,401,1.2935
2.0705,413,1.3323
2.0754,386,1.2452
2.0798,378,1.2194
2.0841,404,1.3032
2.0886,429,1.3839
2.0930,419,1.3516
2.0973,396,1.2774
2.1017,398,1.2839
2.1060,430,1.3871
2.1105,443,1.4290
2.1149,421,1.3581
2.1192,410,1.3226
2.1240,436,1.4065
2.1284,458,1.4774
2.1328,453,1.4613
2.1372,434,1.4000
2.1415,437,1.4097
2.1458,471,1.5194
2.1505,489,1.5774
2.1548,470,1.5161
2.1592,462,1.4903
2.1635,488,1.5742
2.1681,514,1.6581
2.1725,514,1.6581
2.1769,493,1.5903
2.1812,493,1.5903
2.1856,527,1.7000
2.1899,544,1.7548
2.1943,526,1.6968
2.1987,508,1.6387
2.2031,522,1.6839
2.2074,543,1.7516
2.2117,538,1.7355
2.2169,506,1.6323
2.2212,496,1.6000
2.2256,517,1.6677
2.2300,519,1.6742
2.2343,486,1.5677
2.2386,454,1.4645
2.2429,457,1.4742
2.2473,471,1.5194
2.2516,464,1.4968
2.2559,425,1.3710
2.2603,406,1.3097
2.2646,425,1.3710
2.2693,438,1.4129
2.2742,412,1.3290
2.2786,391,1.2613
2.2830,402,1.2968
2.2874,431,1.3903
2.2917,435,1.4032
2.2960,408,1.3161
2.3004,401,1.2935
2.3048,430,1.3871
2.3091,446,1.4387
2.3134,434,1.4000
2.3176,414,1.3355
2.3220,415,1.3387
2.3264,445,1.4355
2.3307,456,1.4710
2.3351,433,1.3968
2.3401,418,1.3484
2.3444,442,1.4258
2.3488,463,1.4935
2.3531,454,1.4645
2.3574,429,1.3839
2.3618,428,1.3806
2.3661,457,1.4742
2.3705,468,1.5097
2.3749,443,1.4290
2.3793,426,1.3742
2.3837,443,1.4290
2.3881,464,1.4968
2.3925,459,1.4806
2.3976,430,1.3871
2.4020,429,1.3839
2.4063,459,1.4806
2.4107,469,1.5129
2.4151,442,1.4258
2.4195,427,1.3774
2.4239,445,1.4355
2.4283,466,1.5032
2.4326,461,1.4871
2.4370,435,1.4032
2.4413,430,1.3871
2.4457,457,1.4742
2.4501,470,1.5161
2.4545,446,1.4387
2.4592,426,1.3742
2.4636,442,1.4258
2.4679,462,1.4903
2.4728,457,1.4742
2.4772,432,1.3935
2.4815,430,1.3871
2.4859,459,1.4806
2.4902,473,1.5258
2.4947,452,1.4581
2.4990,436,1.4065
2.5033,448,1.4452
2.5077,470,1.5161
2.5121,472,1.5226
2.5164,446,1.4387
2.5212,440,1.4194
2.5255,468,1.5097
2.5299,482,1.5548
2.5343,463,1.4935
2.5386,443,1.4290
2.5430,453,1.4613
2.5474,481,1.5516
2.5517,487,1.5710
2.5561,460,1.4839
2.5604,452,1.4581
2.5648,481,1.5516
2.5692,501,1.6161
2.5735,487,1.5710
2.5779,463,1.4935
2.5824,472,1.5226
2.5868,512,1.6516
2.5911,533,1.7194
2.5955,508,1.6387
2.5998,489,1.5774
2.6042,501,1.6161
2.6086,515,1.6613
2.6130,503,1.6226
2.6173,467,1.5065
2.6222,456,1.4710
2.6266,482,1.5548
2.6310,488,1.5742
2.6353,461,1.4871
2.6397,447,1.4419
2.6441,467,1.5065
2.6484,491,1.5839
2.6528,489,1.5774
2.6571,460,1.4839
2.6615,450,1.4516
2.6658,471,1.5194
2.6702,479,1.5452
2.6747,450,1.4516
2.6791,422,1.3613
2.6835,439,1.4161
2.6879,494,1.5935
2.6923,564,1.8194
2.6967,624,2.0129
2.7010,736,2.3742
2.7059,918,2.9613
2.7103,999,3.2226
2.7148,1000,3.2258
2.7192,997,3.2161
2.7236,929,2.9968
2.7281,784,2.5290
2.7325,651,2.1000
2.7370,521,1.6806
2.7415,434,1.4000
2.7459,422,1.3613
2.7513,426,1.3742
2.7557,403,1.3000
2.7601,391,1.2613
2.7644,419,1.3516
2.7688,444,1.4323
2.7741,431,1.3903
2.7784,406,1.3097
2.7828,407,1.3129
2.7885,441,1.4226
2.7930,440,1.4194
2.7974,414,1.3355
2.8019,410,1.3226
2.8063,440,1.4194
2.8107,455,1.4677
2.8151,435,1.4032
2.8195,419,1.3516
2.8243,438,1.4129
2.8287,462,1.4903
2.8340,454,1.4645
2.8385,435,1.4032
2.8429,440,1.4194
2.8473,471,1.5194
2.8516,481,1.5516
2.8560,457,1.4742
2.8604,448,1.4452
2.8648,475,1.5323
2.8692,497,1.6032
2.8760,474,1.5290
2.8805,463,1.4935
2.8848,489,1.5774
2.8892,515,1.6613
2.8935,512,1.6516
2.8980,494,1.5935
2.9025,498,1.6065
2.9070,530,1.7097
2.9121,544,1.7548
2.9165,525,1.6935
2.9209,520,1.6774
2.9253,549,1.7710
2.9298,570,1.8387
2.9343,557,1.7968
2.9389,541,1.7452
2.9435,553,1.7839
2.9478,580,1.8710
2.9522,586,1.8903
2.9566,558,1.8000
2.9610,548,1.7677
2.9653,568,1.8323
2.9697,580,1.8710
2.9742,558,1.8000
2.9787,528,1.7032
2.9832,526,1.6968
2.9876,540,1.7419
2.9921,532,1.7161
2.9966,488,1.5742
3.0011,468,1.5097
3.0055,483,1.5581
3.0108,492,1.5871
3.0163,457,1.4742
3.0206,440,1.4194
3.0249,458,1.4774
3.0293,476,1.5355
3.0337,468,1.5097
3.0381,442,1.4258
3.0424,440,1.4194
3.0468,471,1.5194
3.0512,484,1.5613
3.0556,463,1.4935
3.0600,448,1.4452
3.0644,468,1.5097
3.0688,488,1.5742
3.0731,486,1.5677
3.0783,456,1.4710
3.0827,457,1.4742
3.0872,488,1.5742
3.0916,500,1.6129
3.0959,474,1.5290
3.1003,459,1.4806
3.1048,480,1.5484
3.1091,502,1.6194
3.1135,495,1.5968
3.1179,469,1.5129
3.1223,464,1.4968
3.1267,493,1.5903
3.1311,507,1.6355
3.1355,483,1.5581
3.1400,464,1.4968
3.1443,480,1.5484
3.1487,502,1.6194
3.1530,499,1.6097
3.1575,471,1.5194
3.1620,464,1.4968
3.1665,494,1.5935
3.1709,507,1.6355
3.1752,487,1.5710
3.1796,465,1.5000
3.1841,477,1.5387
3.1885,501,1.6161
3.1929,502,1.6194
3.1973,474,1.5290
3.2020,467,1.5065
3.2064,495,1.5968
3.2107,511,1.6484
3.2151,491,1.5839
3.2194,469,1.5129
3.2238,479,1.5452
3.2282,507,1.6355
3.2326,511,1.6484
3.2370,479,1.5452
3.2413,470,1.5161
3.2456,497,1.6032
3.2499,514,1.6581
3.2541,505,1.6290
3.2583,482,1.5548
3.2625,480,1.5484
3.2667,509,1.6419
3.2710,525,1.6935
3.2752,508,1.6387
3.2795,494,1.5935
3.2838,506,1.6323
3.2881,529,1.7065
3.2923,541,1.7452
3.2965,523,1.6871
3.3007,517,1.6677
3.3050,541,1.7452
3.3092,563,1.8161
3.3134,554,1.7871
3.3176,517,1.6677
3.3219,500,1.6129
3.3261,516,1.6645
3.3304,525,1.6935
3.3347,505,1.6290
3.3389,480,1.5484
3.3431,480,1.5484
3.3473,508,1.6387
3.3516,521,1.6806
3.3558,501,1.6161
3.3600,481,1.5516
3.3642,492,1.5871
3.3684,512,1.6516
3.3727,515,1.6613
3.3769,485,1.5645
3.3816,464,1.4968
3.3859,479,1.5452
3.3902,488,1.5742
3.3944,476,1.5355
3.3986,476,1.5355
3.4028,529,1.7065
3.4070,638,2.0581
3.4112,761,2.4548
3.4154,875,2.8226
3.4196,980,3.1613
3.4238,1000,3.2258
3.4280,1000,3.2258
3.4323,1002,3.2323
3.4367,974,3.1419
3.4410,808,2.6065
3.4453,677,2.1839
3.4496,582,1.8774
3.4539,498,1.6065
3.4582,433,1.3968
3.4625,421,1.3581
3.4667,454,1.4645
3.4710,472,1.5226
3.4753,455,1.4677
3.4796,436,1.4065
3.4839,441,1.4226
3.4882,465,1.5000
3.4925,474,1.5290
3.4967,451,1.4548
3.5009,439,1.4161
3.5051,458,1.4774
3.5094,478,1.5419
3.5136,480,1.5484
3.5179,457,1.4742
3.5221,452,1.4581
3.5263,479,1.5452
3.5305,498,1.6065
3.5352,485,1.5645
3.5394,467,1.5065
3.5436,471,1.5194
3.5478,499,1.6097
3.5520,513,1.6548
3.5563,493,1.5903
3.5605,479,1.5452
3.5648,498,1.6065
3.5690,522,1.6839
3.5732,525,1.6935
3.5775,502,1.6194
3.5817,495,1.5968
3.5860,521,1.6806
3.5902,543,1.7516
3.5945,537,1.7323
3.5987,515,1.6613
3.6029,516,1.6645
3.6071,548,1.7677
3.6114,565,1.8226
3.6158,548,1.7677
3.6201,538,1.7355
3.6243,552,1.7806
3.6285,581,1.8742
3.6327,590,1.9032
3.6370,568,1.8323
3.6412,560,1.8065
3.6455,583,1.8806
3.6497,606,1.9548
3.6540,604,1.9484
3.6582,580,1.8710
3.6625,576,1.8581
3.6668,603,1.9452
3.6710,615,1.9839
3.6752,596,1.9226
3.6795,574,1.8516
3.6838,568,1.8323
3.6881,586,1.8903
3.6925,584,1.8839
3.6967,551,1.7774
3.7009,527,1.7000
3.7051,533,1.7194
3.7093,544,1.7548
3.7136,534,1.7226
3.7178,498,1.6065
3.7221,480,1.5484
3.7263,497,1.6032
3.7305,513,1.6548
3.7347,499,1.6097
3.7390,472,1.5226
3.7432,469,1.5129
3.7474,497,1.6032
3.7516,510,1.6452
3.7558,490,1.5806
3.7601,471,1.5194
3.7644,480,1.5484
3.7687,508,1.6387
3.7730,515,1.6613
3.7773,490,1.5806
3.7817,480,1.5484
3.7860,506,1.6323
3.7907,527,1.7000
3.7951,513,1.6548
3.7994,489,1.5774
3.8037,491,1.5839
3.8080,520,1.6774
3.8123,530,1.7097
3.8167,505,1.6290
3.8210,490,1.5806
3.8253,507,1.6355
3.8296,531,1.7129
3.8338,531,1.7129
3.8381,502,1.6194
3.8423,493,1.5903
3.8466,516,1.6645
3.8508,531,1.7129
3.8550,519,1.6742
3.8592,494,1.5935
3.8635,493,1.5903
3.8677,518,1.6710
3.8719,529,1.7065
3.8764,504,1.6258
3.8807,486,1.5677
3.8851,499,1.6097
3.8893,521,1.6806
3.8936,521,1.6806
3.8978,495,1.5968
3.9021,485,1.5645
3.9064,508,1.6387
3.9107,524,1.6903
3.9150,511,1.6484
3.9193,487,1.5710
3.9236,485,1.5645
3.9279,509,1.6419
3.9321,520,1.6774
3.9363,497,1.6032
3.9406,481,1.5516
3.9449,494,1.5935
3.9491,516,1.6645
3.9533,521,1.6806
3.9575,496,1.6000
3.9622,482,1.5548
3.9665,505,1.6290
3.9707,526,1.6968
3.9749,522,1.6839
3.9791,505,1.6290
3.9838,505,1.6290
3.9881,532,1.7161
3.9923,547,1.7645
3.9965,528,1.7032
4.0007,517,1.6677
4.0050,538,1.7355
4.0092,564,1.8194
4.0134,562,1.8129
4.0176,525,1.6935
4.0219,506,1.6323
4.0261,519,1.6742
4.0303,526,1.6968
4.0346,514,1.6581
4.0388,483,1.5581
4.0431,477,1.5387
4.0475,504,1.6258
4.0518,516,1.6645
4.0561,499,1.6097
4.0604,480,1.5484
4.0648,488,1.5742
4.0691,511,1.6484
4.0734,514,1.6581
4.0778,480,1.5484
4.0821,461,1.4871
4.0865,473,1.5258
4.0908,480,1.5484
4.0952,467,1.5065
4.0996,468,1.5097
4.1041,530,1.7097
4.1085,649,2.0935
4.1130,777,2.5065
4.1174,904,2.9161
4.1220,999,3.2226
4.1264,1003,3.2355
4.1309,1003,3.2355
4.1353,998,3.2194
4.1397,957,3.0871
4.1441,770,2.4839
4.1485,616,1.9871
4.1529,508,1.6387
4.1573,436,1.4065
4.1616,415,1.3387
4.1660,437,1.4097
4.1705,462,1.4903
4.1749,456,1.4710
4.1793,431,1.3903
4.1836,424,1.3677
4.1880,450,1.4516
4.1924,463,1.4935
4.1968,442,1.4258
4.2012,426,1.3742
4.2056,442,1.4258
4.2100,463,1.4935
4.2143,463,1.4935
4.2187,438,1.4129
4.2231,433,1.3968
4.2275,464,1.4968
4.2320,482,1.5548
4.2363,467,1.5065
4.2407,450,1.4516
4.2455,463,1.4935
4.2499,487,1.5710
4.2543,489,1.5774
4.2587,466,1.5032
4.2632,463,1.4935
4.2676,491,1.5839
4.2720,507,1.6355
4.2764,490,1.5806
4.2813,475,1.5323
4.2857,496,1.6000
4.2909,526,1.6968
4.2953,518,1.6710
4.2997,497,1.6032
4.3040,502,1.6194
4.3084,533,1.7194
4.3128,549,1.7710
4.3171,531,1.7129
4.3215,521,1.6806
4.3258,542,1.7484
4.3302,570,1.8387
4.3346,573,1.8484
4.3390,551,1.7774
4.3434,548,1.7677
4.3483,584,1.8839
4.3526,598,1.9290
4.3570,576,1.8581
4.3613,558,1.8000
4.3657,573,1.8484
4.3701,592,1.9097
4.3745,590,1.9032
4.3789,560,1.8065
4.3832,545,1.7581
4.3875,563,1.8161
4.3918,569,1.8355
4.3963,539,1.7387
4.4006,510,1.6452
4.4049,508,1.6387
4.4098,523,1.6871
4.4141,514,1.6581
4.4184,477,1.5387
4.4227,458,1.4774
4.4270,477,1.5387
4.4313,489,1.5774
4.4356,475,1.5323
4.4399,450,1.4516
4.4442,450,1.4516
4.4485,478,1.5419
4.4528,489,1.5774
4.4571,467,1.5065
4.4614,451,1.4548
4.4657,466,1.5032
4.4700,491,1.5839
4.4744,493,1.5903
4.4787,467,1.5065
4.4830,460,1.4839
4.4873,488,1.5742
4.4917,506,1.6323
4.4960,493,1.5903
4.5003,472,1.5226
4.5046,473,1.5258
4.5088,502,1.6194
4.5141,511,1.6484
4.5184,484,1.5613
4.5227,474,1.5290
4.5270,496,1.6000
4.5313,513,1.6548
4.5356,500,1.6129
4.5400,476,1.5355
4.5444,477,1.5387
4.5486,505,1.6290
4.5532,515,1.6613
4.5575,488,1.5742
4.5617,471,1.5194
4.5660,486,1.5677
4.5704,506,1.6323
4.5747,504,1.6258
4.5791,476,1.5355
4.5839,467,1.5065
4.5882,496,1.6000
4.5931,508,1.6387
4.5974,484,1.5613
4.6017,468,1.5097
4.6059,482,1.5548
4.6102,503,1.6226
4.6146,503,1.6226
4.6189,475,1.5323
4.6231,465,1.5000
4.6274,490,1.5806
4.6317,507,1.6355
4.6360,490,1.5806
4.6404,468,1.5097
4.6447,472,1.5226
4.6490,500,1.6129
4.6532,508,1.6387
4.6575,480,1.5484
4.6618,465,1.5000
4.6661,482,1.5548
4.6704,506,1.6323
4.6747,509,1.6419
4.6790,486,1.5677
4.6834,483,1.5581
4.6877,513,1.6548
4.6921,530,1.7097
4.6964,515,1.6613
4.7007,501,1.6161
4.7050,512,1.6516
4.7093,545,1.7581
4.7136,555,1.7903
4.7179,525,1.6935
4.7222,502,1.6194
4.7265,513,1.6548
4.7308,522,1.6839
4.7351,512,1.6516
4.7394,479,1.5452
4.7442,468,1.5097
4.7485,495,1.5968
4.7528,508,1.6387
4.7571,488,1.5742
4.7620,469,1.5129
4.7663,484,1.5613
4.7706,503,1.6226
4.7749,500,1.6129
4.7792,472,1.5226
4.7835,459,1.4806
4.7878,477,1.5387
4.7920,481,1.5516
4.7963,459,1.4806
4.8005,437,1.4097
4.8048,460,1.4839
4.8090,539,1.7387
4.8140,644,2.0774
4.8183,736,2.3742
4.8226,871,2.8097
4.8268,999,3.2226
4.8311,1001,3.2290
4.8354,1002,3.2323
4.8397,1000,3.2258
4.8440,944,3.0452
4.8483,788,2.5419
4.8526,638,2.0581
4.8570,503,1.6226
4.8613,426,1.3742
4.8656,420,1.3548
4.8699,447,1.4419
4.8742,456,1.4710
4.8785,435,1.4032
4.8828,423,1.3645
4.8871,444,1.4323
4.8915,462,1.4903
4.8957,454,1.4645
4.9000,431,1.3903
4.9042,427,1.3774
4.9085,456,1.4710
4.9127,473,1.5258
4.9169,455,1.4677
4.9215,435,1.4032
4.9257,446,1.4387
4.9299,473,1.5258
4.9341,482,1.5548
4.9384,458,1.4774
4.9426,446,1.4387
4.9469,467,1.5065
4.9511,488,1.5742
4.9553,486,1.5677
4.9595,463,1.4935
4.9637,458,1.4774
4.9680,488,1.5742
4.9722,507,1.6355
4.9764,495,1.5968
4.9806,477,1.5387
4.9848,480,1.5484
4.9891,510,1.6452
4.9933,525,1.6935
4.9976,507,1.6355
5.0147,544,1.7548
5.0191,520,1.6774
5.0235,517,1.6677
5.0278,547,1.7645
5.0322,569,1.8355
5.0365,560,1.8065
5.0408,544,1.7548
5.0452,551,1.7774
5.0495,581,1.8742
5.0538,593,1.9129
5.0581,570,1.8387
5.0624,559,1.8032
5.0667,580,1.8710
5.0716,600,1.9355
5.0759,589,1.9000
5.0802,561,1.8097
5.0845,552,1.7806
5.0888,573,1.8484
5.0932,579,1.8677
5.0975,547,1.7645
5.1018,518,1.6710
5.1061,520,1.6774
5.1104,534,1.7226
5.1148,525,1.6935
5.1191,489,1.5774
5.1234,467,1.5065
5.1277,484,1.5613
5.1320,497,1.6032
5.1364,477,1.5387
5.1408,451,1.4548
5.1451,451,1.4548
5.1494,479,1.5452
5.1538,491,1.5839
5.1581,466,1.5032
5.1624,449,1.4484
5.1667,467,1.5065
5.1710,489,1.5774
5.1754,490,1.5806
5.1797,465,1.5000
5.1840,460,1.4839
5.1883,488,1.5742
5.1927,506,1.6323
5.1975,486,1.5677
5.2018,468,1.5097
5.2060,480,1.5484
5.2105,508,1.6387
5.2148,512,1.6516
5.2190,484,1.5613
5.2233,474,1.5290
5.2275,495,1.5968
5.2317,513,1.6548
5.2360,508,1.6387
5.2402,482,1.5548
5.2444,475,1.5323
5.2487,501,1.6161
5.2529,514,1.6581
5.2572,495,1.5968
5.2614,475,1.5323
5.2656,478,1.5419
5.2698,502,1.6194
5.2741,510,1.6452
5.2783,482,1.5548
5.2826,464,1.4968
5.2868,479,1.5452
5.2911,500,1.6129
5.2953,499,1.6097
5.2996,474,1.5290
5.3038,465,1.5000
5.3080,489,1.5774
5.3126,504,1.6258
5.3169,491,1.5839
5.3211,468,1.5097
5.3253,469,1.5129
5.3296,497,1.6032
5.3339,506,1.6323
5.3382,482,1.5548
5.3425,466,1.5032
5.3469,482,1.5548
5.3512,503,1.6226
5.3555,502,1.6194
5.3598,476,1.5355
5.3640,468,1.5097
5.3682,494,1.5935
5.3724,510,1.6452
5.3766,498,1.6065
5.3809,474,1.5290
5.3854,473,1.5258
5.3897,498,1.6065
5.3945,507,1.6355
5.3987,483,1.5581
5.4030,471,1.5194
5.4072,493,1.5903
5.4115,518,1.6710
5.4159,518,1.6710
5.4202,495,1.5968
5.4245,489,1.5774
5.4287,521,1.6806
5.4329,543,1.7516
5.4371,536,1.7290
5.4413,526,1.6968
5.4456,528,1.7032
5.4498,546,1.7613
5.4540,546,1.7613
5.4582,515,1.6613
5.4625,493,1.5903
5.4667,501,1.6161
5.4709,518,1.6710
5.4751,514,1.6581
5.4793,483,1.5581
5.4836,469,1.5129
5.4879,492,1.5871
5.4921,511,1.6484
5.4965,503,1.6226
5.5013,478,1.5419
5.5056,479,1.5452
5.5099,505,1.6290
5.5141,507,1.6355
5.5183,476,1.5355
5.5226,450,1.4516
5.5268,454,1.4645
5.5310,468,1.5097
5.5352,484,1.5613
5.5394,505,1.6290
5.5437,568,1.8323
5.5479,690,2.2258
5.5522,840,2.7097
5.5564,974,3.1419
5.5606,1000,3.2258
5.5649,1001,3.2290
5.5691,1000,3.2258
5.5732,996,3.2129
5.5774,866,2.7935
5.5817,684,2.2065
5.5861,551,1.7774
5.5904,489,1.5774
5.5946,459,1.4806
5.5991,423,1.3645
5.6034,414,1.3355
5.6077,441,1.4226
5.6119,465,1.5000
5.6162,461,1.4871
5.6204,435,1.4032
5.6247,427,1.3774
5.6289,454,1.4645
5.6331,469,1.5129
5.6373,453,1.4613
5.6415,435,1.4032
5.6458,439,1.4161
5.6504,470,1.5161
5.6546,478,1.5419
5.6588,455,1.4677
5.6630,443,1.4290
5.6678,466,1.5032
5.6720,485,1.5645
5.6762,483,1.5581
5.6809,459,1.4806
5.6852,457,1.4742
5.6894,487,1.5710
5.6937,503,1.6226
5.6979,485,1.5645
5.7022,469,1.5129
5.7064,482,1.5548
5.7107,509,1.6419
5.7150,517,1.6677
5.7193,495,1.5968
5.7236,484,1.5613
5.7278,509,1.6419
5.7320,533,1.7194
5.7362,533,1.7194
5.7404,512,1.6516
5.7447,509,1.6419
5.7489,542,1.7484
5.7532,559,1.8032
5.7574,547,1.7645
5.7616,534,1.7226
5.7658,539,1.7387
5.7700,571,1.8419
5.7742,588,1.8968
5.7784,570,1.8387
5.7830,556,1.7935
5.7873,573,1.8484
5.7915,597,1.9258
5.7958,601,1.9387
5.8000,574,1.8516
5.8042,566,1.8258
5.8085,587,1.8935
5.8127,603,1.9452
5.8170,588,1.8968
5.8212,557,1.7968
5.8255,545,1.7581
5.8297,565,1.8226
5.8339,567,1.8290
5.8381,534,1.7226
5.8423,505,1.6290
5.8465,499,1.6097
5.8508,514,1.6581
5.8550,512,1.6516
5.8592,478,1.5419
5.8634,461,1.4871
5.8677,474,1.5290
5.8719,489,1.5774
5.8761,484,1.5613
5.8803,455,1.4677
5.8845,448,1.4452
5.8893,475,1.5323
5.8936,491,1.5839
5.8978,474,1.5290
5.9020,455,1.4677
5.9063,462,1.4903
5.9106,491,1.5839
5.9150,500,1.6129
5.9193,477,1.5387
5.9236,467,1.5065
5.9279,489,1.5774
5.9323,508,1.6387
5.9367,502,1.6194
5.9410,478,1.5419
5.9454,472,1.5226
5.9498,500,1.6129
5.9542,512,1.6516
5.9585,491,1.5839
5.9628,474,1.5290
5.9671,489,1.5774
5.9714,511,1.6484
5.9757,511,1.6484
5.9800,482,1.5548
5.9843,471,1.5194
5.9886,493,1.5903
5.9929,506,1.6323
5.9972,492,1.5871
6.0015,471,1.5194
6.0058,470,1.5161
6.0101,498,1.6065
6.0145,507,1.6355
6.0188,479,1.5452
6.0231,461,1.4871
6.0273,474,1.5290
6.0315,497,1.6032
6.0359,499,1.6097
6.0402,473,1.5258
6.0445,461,1.4871
6.0492,487,1.5710
6.0535,501,1.6161
6.0578,486,1.5677
6.0620,465,1.5000
6.0663,466,1.5032
6.0706,492,1.5871
6.0749,500,1.6129
6.0791,476,1.5355
6.0834,462,1.4903
6.0879,482,1.5548
6.0923,503,1.6226
6.0969,493,1.5903
6.1013,468,1.5097
6.1058,467,1.5065
6.1108,498,1.6065
6.1153,506,1.6323
6.1198,479,1.5452
6.1242,465,1.5000
6.1286,486,1.5677
6.1331,505,1.6290
6.1375,495,1.5968
6.1419,476,1.5355
6.1463,480,1.5484
6.1506,510,1.6452
6.1550,521,1.6806
6.1594,497,1.6032
6.1638,488,1.5742
6.1682,518,1.6710
6.1725,550,1.7742
6.1769,549,1.7710
6.1813,522,1.6839
6.1857,509,1.6419
6.1901,529,1.7065
6.1945,532,1.7161
6.1988,501,1.6161
6.2032,476,1.5355
6.2076,487,1.5710
6.2120,505,1.6290
6.2164,503,1.6226
6.2209,477,1.5387
6.2253,471,1.5194
6.2296,499,1.6097
6.2342,513,1.6548
6.2386,493,1.5903
6.2430,471,1.5194
6.2474,478,1.5419
6.2518,493,1.5903
6.2562,486,1.5677
6.2606,448,1.4452
6.2650,439,1.4161
6.2694,488,1.5742
6.2738,558,1.8000
6.2783,622,2.0065
6.2827,716,2.3097
6.2871,860,2.7742
6.2915,995,3.2097
6.2959,1001,3.2290
6.3003,999,3.2226
6.3047,981,3.1645
6.3091,868,2.8000
6.3135,680,2.1935
6.3206,543,1.7516
6.3250,457,1.4742
6.3294,442,1.4258
6.3338,445,1.4355
6.3382,428,1.3806
6.3426,414,1.3355
6.3470,430,1.3871
6.3514,460,1.4839
6.3563,462,1.4903
6.3607,435,1.4032
6.3651,428,1.3806
6.3695,456,1.4710
6.3738,473,1.5258
6.3782,458,1.4774
6.3825,442,1.4258
6.3869,447,1.4419
6.3912,474,1.5290
6.3956,482,1.5548
6.3999,455,1.4677
6.4043,446,1.4387
6.4087,471,1.5194
6.4130,491,1.5839
6.4174,485,1.5645
6.4217,465,1.5000
6.4263,469,1.5129
6.4310,496,1.6000
6.4354,507,1.6355
6.4397,483,1.5581
6.4440,470,1.5161
6.4484,494,1.5935
6.4529,516,1.6645
6.4572,512,1.6516
6.4616,492,1.5871
6.4659,493,1.5903
6.4702,523,1.6871
6.4745,539,1.7387
6.4787,524,1.6903
6.4829,509,1.6419
6.4872,521,1.6806
6.4914,551,1.7774
6.4957,564,1.8194
6.4999,542,1.7484
6.5041,533,1.7194
6.5084,556,1.7935
6.5127,581,1.8742
6.5170,581,1.8742
6.5215,556,1.7935
6.5258,554,1.7871
6.5301,582,1.8774
6.5344,595,1.9194
6.5386,577,1.8613
6.5429,559,1.8032
6.5473,562,1.8129
6.5515,583,1.8806
6.5558,585,1.8871
6.5600,550,1.7742
6.5642,526,1.6968
6.5685,533,1.7194
6.5727,543,1.7516
6.5769,529,1.7065
6.5811,496,1.6000
6.5853,479,1.5452
6.5896,495,1.5968
6.5942,502,1.6194
6.5984,481,1.5516
6.6032,457,1.4742
6.6074,466,1.5032
6.6118,489,1.5774
6.6161,490,1.5806
6.6204,461,1.4871
6.6247,451,1.4548
6.6289,474,1.5290
6.6332,494,1.5935
6.6374,487,1.5710
6.6416,464,1.4968
6.6459,461,1.4871
6.6501,488,1.5742
6.6543,504,1.6258
6.6586,488,1.5742
6.6628,467,1.5065
6.6670,473,1.5258
6.6713,500,1.6129
6.6755,511,1.6484
6.6798,488,1.5742
6.6841,468,1.5097
6.6884,485,1.5645
6.6928,504,1.6258
6.6971,501,1.6161
6.7014,477,1.5387
6.7057,470,1.5161
6.7100,498,1.6065
6.7144,509,1.6419
6.7187,489,1.5774
6.7230,471,1.5194
6.7273,477,1.5387
6.7317,501,1.6161
6.7360,504,1.6258
6.7404,475,1.5323
6.7448,462,1.4903
6.7492,482,1.5548
6.7535,500,1.6129
6.7579,489,1.5774
6.7622,466,1.5032
6.7668,464,1.4968
6.7711,490,1.5806
6.7754,500,1.6129
6.7797,476,1.5355
6.7840,459,1.4806
6.7883,473,1.5258
6.7926,495,1.5968
6.7970,494,1.5935
6.8014,469,1.5129
6.8056,460,1.4839
6.8100,486,1.5677
6.8143,502,1.6194
6.8186,486,1.5677
6.8229,466,1.5032
6.8272,470,1.5161
6.8315,497,1.6032
6.8358,505,1.6290
6.8401,477,1.5387
6.8444,462,1.4903
6.8487,482,1.5548
6.8530,503,1.6226
6.8573,497,1.6032
6.8616,471,1.5194
6.8658,464,1.4968
6.8700,490,1.5806
6.8743,506,1.6323
6.8785,491,1.5839
6.8827,471,1.5194
6.8870,471,1.5194
6.8913,498,1.6065
6.8956,509,1.6419
6.8999,485,1.5645
6.9043,472,1.5226
6.9086,495,1.5968
6.9130,520,1.6774
6.9173,518,1.6710
6.9216,492,1.5871
6.9258,489,1.5774
6.9304,527,1.7000
6.9347,550,1.7742
6.9389,541,1.7452
6.9431,524,1.6903
6.9473,523,1.6871
6.9516,539,1.7387
6.9559,539,1.7387
6.9608,503,1.6226
6.9651,480,1.5484
6.9693,495,1.5968
6.9736,510,1.6452
6.9779,502,1.6194
6.9821,477,1.5387
6.9864,473,1.5258
6.9907,499,1.6097
6.9950,512,1.6516
6.9993,490,1.5806
7.0036,472,1.5226
7.0079,480,1.5484
7.0123,498,1.6065
7.0166,495,1.5968
7.0209,456,1.4710
7.0251,437,1.4097
7.0293,458,1.4774
7.0335,498,1.6065
7.0378,544,1.7548
7.0420,601,1.9387
7.0462,701,2.2613
7.0504,864,2.7871
7.0546,998,3.2194
7.0590,1001,3.2290
7.0633,1001,3.2290
7.0676,999,3.2226
7.0719,982,3.1677
7.0763,829,2.6742
7.0806,638,2.0581
7.0850,501,1.6161
7.0893,455,1.4677
7.0940,452,1.4581
7.0983,443,1.4290
7.1026,423,1.3645
7.1069,424,1.3677
7.1112,453,1.4613
7.1155,463,1.4935
7.1198,438,1.4129
7.1241,421,1.3581
7.1285,438,1.4129
7.1328,458,1.4774
7.1371,460,1.4839
7.1414,437,1.4097
7.1457,431,1.3903
7.1499,454,1.4645
7.1541,472,1.5226
7.1583,462,1.4903
7.1626,443,1.4290
7.1668,443,1.4290
7.1710,473,1.5258
7.1758,486,1.5677
7.1801,465,1.5000
7.1843,452,1.4581
7.1885,471,1.5194
7.1927,494,1.5935
7.1970,501,1.6161
7.2012,476,1.5355
7.2055,467,1.5065
7.2097,494,1.5935
7.2147,515,1.6613
7.2190,500,1.6129
7.2233,483,1.5581
7.2275,489,1.5774
7.2318,516,1.6645
7.2360,533,1.7194
7.2402,512,1.6516
7.2446,503,1.6226
7.2489,527,1.7000
7.2533,550,1.7742
7.2576,552,1.7806
7.2620,533,1.7194
7.2663,532,1.7161
7.2708,567,1.8290
7.2751,584,1.8839
7.2794,564,1.8194
7.2838,546,1.7613
7.2881,561,1.8097
7.2928,588,1.8968
7.2971,590,1.9032
7.3014,565,1.8226
7.3057,554,1.7871
7.3100,576,1.8581
7.3143,587,1.8935
7.3190,562,1.8129
7.3234,536,1.7290
7.3276,532,1.7161
7.3319,548,1.7677
7.3362,546,1.7613
7.3406,508,1.6387
7.3449,484,1.5613
7.3492,493,1.5903
7.3535,502,1.6194
7.3578,493,1.5903
7.3621,461,1.4871
7.3665,450,1.4516
7.3708,473,1.5258
7.3750,485,1.5645
7.3793,465,1.5000
7.3835,447,1.4419
7.3879,453,1.4613
7.3922,478,1.5419
7.3965,485,1.5645
7.4009,457,1.4742
7.4052,445,1.4355
7.4094,468,1.5097
7.4141,493,1.5903
7.4183,487,1.5710
7.4225,465,1.5000
7.4268,460,1.4839
7.4310,488,1.5742
7.4352,504,1.6258
7.4394,489,1.5774
7.4436,471,1.5194
7.4479,478,1.5419
7.4521,505,1.6290
7.4563,514,1.6581
7.4605,487,1.5710
7.4648,470,1.5161
7.4690,487,1.5710
7.4733,507,1.6355
7.4775,508,1.6387
7.4817,482,1.5548
7.4859,470,1.5161
7.4901,493,1.5903
7.4944,507,1.6355
7.4986,496,1.6000
7.5029,472,1.5226
7.5074,472,1.5226
7.5120,497,1.6032
7.5163,504,1.6258
7.5206,478,1.5419
7.5249,462,1.4903
7.5291,477,1.5387
7.5334,497,1.6032
7.5380,494,1.5935
7.5422,471,1.5194
7.5465,462,1.4903
7.5507,489,1.5774
7.5549,501,1.6161
7.5592,485,1.5645
7.5634,461,1.4871
7.5678,464,1.4968
7.5722,491,1.5839
7.5764,502,1.6194
7.5807,477,1.5387
7.5850,460,1.4839
7.5893,478,1.5419
7.5940,498,1.6065
7.5983,492,1.5871
7.6026,468,1.5097
7.6069,463,1.4935
7.6115,492,1.5871
7.6158,505,1.6290
7.6200,482,1.5548
7.6242,465,1.5000
7.6284,476,1.5355
7.6327,499,1.6097
7.6370,505,1.6290
7.6412,480,1.5484
7.6455,467,1.5065
7.6503,490,1.5806
7.6546,505,1.6290
7.6588,494,1.5935
7.6630,473,1.5258
7.6673,474,1.5290
7.6715,506,1.6323
7.6758,521,1.6806
7.6800,500,1.6129
7.6842,483,1.5581
7.6885,499,1.6097
7.6927,529,1.7065
7.6970,544,1.7548
7.7012,525,1.6935
7.7054,512,1.6516
7.7097,526,1.6968
7.7139,535,1.7258
7.7182,523,1.6871
7.7224,494,1.5935
7.7266,480,1.5484
7.7308,498,1.6065
7.7351,507,1.6355
7.7393,487,1.5710
7.7435,465,1.5000
7.7482,474,1.5290
7.7525,498,1.6065
7.7567,505,1.6290
7.7609,480,1.5484
7.7651,464,1.4968
7.7694,480,1.5484
7.7738,499,1.6097
7.7781,487,1.5710
7.7824,450,1.4516
7.7867,432,1.3935
7.7910,455,1.4677
7.7954,487,1.5710
7.7998,517,1.6677
7.8041,574,1.8516
7.8084,683,2.2032
7.8129,853,2.7516
7.8172,995,3.2097
7.8215,1000,3.2258
7.8257,1002,3.2323
7.8303,1001,3.2290
7.8346,993,3.2032
7.8389,844,2.7226
7.8433,646,2.0839
7.8476,511,1.6484
7.8519,466,1.5032
7.8562,455,1.4677
7.8605,429,1.3839
7.8648,416,1.3419
7.8691,433,1.3968
7.8734,456,1.4710
7.8778,457,1.4742
7.8821,429,1.3839
7.8864,418,1.3484
7.8907,445,1.4355
7.8953,462,1.4903
7.8996,445,1.4355
7.9039,425,1.3710
7.9082,430,1.3871
7.9124,459,1.4806
7.9167,470,1.5161
7.9210,446,1.4387
7.9253,434,1.4000
7.9295,454,1.4645
7.9338,476,1.5355
7.9382,475,1.5323
7.9425,450,1.4516
7.9467,447,1.4419
7.9509,477,1.5387
7.9551,495,1.5968
7.9594,484,1.5613
7.9639,466,1.5032
7.9682,472,1.5226
7.9724,500,1.6129
7.9766,510,1.6452
7.9809,490,1.5806
7.9851,479,1.5452
7.9893,498,1.6065
7.9938,523,1.6871
7.9981,526,1.6968
8.0024,501,1.6161
8.0066,500,1.6129
8.0108,531,1.7129
8.0150,555,1.7903
8.0193,548,1.7677
8.0235,531,1.7129
8.0278,532,1.7161
8.0320,563,1.8161
8.0362,579,1.8677
8.0405,562,1.8129
8.0447,550,1.7742
8.0489,562,1.8129
8.0531,588,1.8968
8.0574,594,1.9161
8.0618,566,1.8258
8.0661,554,1.7871
8.0704,577,1.8613
8.0747,593,1.9129
8.0790,578,1.8645
8.0834,547,1.7645
8.0877,536,1.7290
8.0920,551,1.7774
8.0962,551,1.7774
8.1005,521,1.6806
8.1048,492,1.5871
8.1090,495,1.5968
8.1154,507,1.6355
8.1197,483,1.5581
8.1241,457,1.4742
8.1284,458,1.4774
8.1327,481,1.5516
8.1371,485,1.5645
8.1414,458,1.4774
8.1457,444,1.4323
8.1499,463,1.4935
8.1542,484,1.5613
8.1585,480,1.5484
8.1628,454,1.4645
8.1670,449,1.4484
8.1713,477,1.5387
8.1755,495,1.5968
8.1798,481,1.5516
8.1841,462,1.4903
8.1883,469,1.5129
8.1925,495,1.5968
8.1968,503,1.6226
8.2011,482,1.5548
8.2055,468,1.5097
8.2098,487,1.5710
8.2140,508,1.6387
8.2187,504,1.6258
8.2231,480,1.5484
8.2274,475,1.5323
8.2317,504,1.6258
8.2359,516,1.6645
8.2402,495,1.5968
8.2445,476,1.5355
8.2488,485,1.5645
8.2530,509,1.6419
8.2571,515,1.6613
8.2614,487,1.5710
8.2656,470,1.5161
8.2698,486,1.5677
8.2741,506,1.6323
8.2783,504,1.6258
8.2825,477,1.5387
8.2868,469,1.5129
8.2911,495,1.5968
8.2954,510,1.6452
8.2998,492,1.5871
8.3050,466,1.5032
8.3095,481,1.5516
8.3140,502,1.6194
8.3184,501,1.6161
8.3229,473,1.5258
8.3274,467,1.5065
8.3319,494,1.5935
8.3364,505,1.6290
8.3407,483,1.5581
8.3452,467,1.5065
8.3496,481,1.5516
8.3540,503,1.6226
8.3584,502,1.6194
8.3627,474,1.5290
8.3676,466,1.5032
8.3719,495,1.5968
8.3763,509,1.6419
8.3807,486,1.5677
8.3851,467,1.5065
8.3895,480,1.5484
8.3939,505,1.6290
8.3982,505,1.6290
8.4026,476,1.5355
8.4079,470,1.5161
8.4124,499,1.6097
8.4167,512,1.6516
8.4211,485,1.5645
8.4255,468,1.5097
8.4299,488,1.5742
8.4343,509,1.6419
8.4387,505,1.6290
8.4430,481,1.5516
8.4474,480,1.5484
8.4518,512,1.6516
8.4562,525,1.6935
8.4605,507,1.6355
8.4651,495,1.5968
8.4694,520,1.6774
8.4738,552,1.7806
8.4783,554,1.7871
8.4828,518,1.6710
8.4872,501,1.6161
8.4915,524,1.6903
8.4959,532,1.7161
8.5004,503,1.6226
8.5048,473,1.5258
8.5092,478,1.5419
8.5137,503,1.6226
8.5180,508,1.6387
8.5225,479,1.5452
8.5269,471,1.5194
8.5312,496,1.6000
8.5356,511,1.6484
8.5400,495,1.5968
8.5444,470,1.5161
8.5488,471,1.5194
8.5532,488,1.5742
8.5577,484,1.5613
8.5621,448,1.4452
8.5665,444,1.4323
8.5708,508,1.6387
8.5753,596,1.9226
8.5796,676,2.1806
8.5840,779,2.5129
8.5887,927,2.9903
8.5931,1001,3.2290
8.5975,1000,3.2258
8.6026,996,3.2129
8.6070,914,2.9484
8.6115,771,2.4871
8.6159,650,2.0968
8.6203,532,1.7161
8.6247,439,1.4161
8.6298,418,1.3484
8.6342,439,1.4161
8.6386,442,1.4258
8.6429,419,1.3516
8.6473,418,1.3484
8.6516,448,1.4452
8.6560,464,1.4968
8.6604,446,1.4387
8.6647,427,1.3774
8.6690,432,1.3935
8.6734,461,1.4871
8.6778,469,1.5129
8.6821,443,1.4290
8.6864,430,1.3871
8.6912,456,1.4710
8.6955,479,1.5452
8.6999,469,1.5129
8.7042,448,1.4452
8.7086,450,1.4516
8.7130,478,1.5419
8.7173,491,1.5839
8.7216,469,1.5129
8.7260,457,1.4742
8.7304,479,1.5452
8.7347,501,1.6161
8.7391,497,1.6032
8.7435,475,1.5323
8.7478,472,1.5226
8.7527,509,1.6419
8.7571,521,1.6806
8.7614,502,1.6194
8.7658,490,1.5806
8.7701,511,1.6484
8.7745,536,1.7290
8.7788,543,1.7516
8.7831,522,1.6839
8.7874,521,1.6806
8.7917,552,1.7806
8.7960,573,1.8484
8.8003,563,1.8161
8.8047,548,1.7677
8.8090,556,1.7935
8.8133,586,1.8903
8.8176,599,1.9323
8.8219,575,1.8548
8.8262,565,1.8226
8.8304,584,1.8839
8.8347,603,1.9452
8.8390,600,1.9355
8.8432,574,1.8516
8.8474,563,1.8161
8.8516,585,1.8871
8.8558,593,1.9129
8.8601,568,1.8323
8.8643,536,1.7290
8.8685,524,1.6903
8.8727,542,1.7484
8.8769,544,1.7548
8.8812,512,1.6516
8.8854,484,1.5613
8.8896,485,1.5645
8.8938,502,1.6194
8.8980,501,1.6161
8.9023,472,1.5226
8.9067,456,1.4710
8.9110,473,1.5258
8.9153,492,1.5871
8.9197,481,1.5516
8.9241,458,1.4774
8.9284,458,1.4774
8.9327,488,1.5742
8.9370,503,1.6226
8.9413,479,1.5452
8.9456,462,1.4903
8.9499,481,1.5516
8.9542,507,1.6355
8.9584,512,1.6516
8.9627,488,1.5742
8.9670,478,1.5419
8.9712,503,1.6226
8.9754,521,1.6806
8.9797,510,1.6452
8.9840,490,1.5806
8.9882,489,1.5774
8.9924,518,1.6710
8.9966,530,1.7097
9.0009,512,1.6516
9.0051,492,1.5871
9.0094,500,1.6129
9.0138,533,1.7194
9.0199,522,1.6839
9.0242,496,1.6000
9.0286,496,1.6000
9.0329,525,1.6935
9.0372,533,1.7194
9.0416,510,1.6452
9.0460,493,1.5903
9.0503,505,1.6290
9.0547,527,1.7000
9.0595,523,1.6871
9.0638,500,1.6129
9.0681,492,1.5871
9.0724,518,1.6710
9.0767,532,1.7161
9.0810,514,1.6581
9.0853,494,1.5935
9.0896,502,1.6194
9.0939,526,1.6968
9.0982,531,1.7129
9.1025,504,1.6258
9.1068,493,1.5903
9.1110,514,1.6581
9.1152,536,1.7290
9.1194,532,1.7161
9.1236,506,1.6323
9.1279,500,1.6129
9.1321,527,1.7000
9.1363,543,1.7516
9.1405,526,1.6968
9.1447,507,1.6355
9.1490,507,1.6355
9.1532,533,1.7194
9.1574,543,1.7516
9.1618,518,1.6710
9.1661,502,1.6194
9.1703,519,1.6742
9.1746,543,1.7516
9.1788,545,1.7581
9.1831,520,1.6774
9.1873,510,1.6452
9.1915,536,1.7290
9.1957,554,1.7871
9.1999,547,1.7645
9.2042,528,1.7032
9.2085,529,1.7065
9.2127,559,1.8032
9.2169,576,1.8581
9.2211,561,1.8097
9.2254,548,1.7677
9.2297,568,1.8323
9.2340,598,1.9290
9.2383,602,1.9419
9.2426,566,1.8258
9.2470,544,1.7548
9.2514,561,1.8097
9.2558,572,1.8452
9.2601,554,1.7871
9.2644,524,1.6903
9.2687,521,1.6806
9.2730,548,1.7677
9.2773,557,1.7968
9.2815,534,1.7226
9.2858,518,1.6710
9.2900,531,1.7129
9.2943,554,1.7871
9.2985,557,1.7968
9.3027,527,1.7000
9.3070,509,1.6419
9.3113,522,1.6839
9.3157,533,1.7194
9.3201,516,1.6645
9.3253,503,1.6226
9.3296,556,1.7935
9.3339,654,2.1097
9.3382,760,2.4516
9.3425,860,2.7742
9.3468,976,3.1484
9.3512,1002,3.2323
9.3555,1003,3.2355
9.3598,1000,3.2258
9.3641,995,3.2097
9.3684,887,2.8613
9.3727,751,2.4226
9.3770,643,2.0742
9.3813,531,1.7129
9.3855,460,1.4839
9.3897,453,1.4613
9.3940,478,1.5419
9.3982,488,1.5742
9.4024,469,1.5129
9.4072,461,1.4871
9.4115,485,1.5645
9.4157,504,1.6258
9.4199,493,1.5903
9.4242,469,1.5129
9.4284,465,1.5000
9.4327,493,1.5903
9.4369,507,1.6355
9.4412,491,1.5839
9.4454,476,1.5355
9.4497,485,1.5645
9.4541,510,1.6452
9.4584,517,1.6677
9.4627,491,1.5839
9.4671,480,1.5484
9.4714,504,1.6258
9.4762,526,1.6968
9.4805,513,1.6548
9.4849,493,1.5903
9.4892,498,1.6065
9.4935,528,1.7032
9.4979,541,1.7452
9.5023,517,1.6677
9.5066,503,1.6226
9.5110,524,1.6903
9.5154,545,1.7581
9.5197,543,1.7516
9.5240,520,1.6774
9.5283,516,1.6645
9.5327,550,1.7742
9.5370,570,1.8387
9.5414,553,1.7839
9.5456,536,1.7290
9.5499,551,1.7774
9.5549,583,1.8806
9.5592,587,1.8935
9.5635,563,1.8161
9.5677,556,1.7935
9.5720,585,1.8871
9.5763,603,1.9452
9.5812,590,1.9032
9.5855,572,1.8452
9.5897,576,1.8581
9.5940,601,1.9387
9.5983,607,1.9581
9.6026,578,1.8645
9.6070,559,1.8032
9.6113,572,1.8452
9.6156,583,1.8806
9.6199,566,1.8258
9.6242,530,1.7097
9.6284,512,1.6516
9.6328,526,1.6968
9.6371,529,1.7065
9.6415,497,1.6032
9.6458,467,1.5065
9.6501,469,1.5129
9.6544,485,1.5645
9.6587,485,1.5645
9.6629,452,1.4581
9.6672,435,1.4032
9.6715,453,1.4613
9.6758,471,1.5194
9.6801,462,1.4903
9.6844,437,1.4097
9.6887,433,1.3968
9.6930,460,1.4839
9.6974,471,1.5194
9.7017,449,1.4484
9.7061,433,1.3968
9.7104,446,1.4387
9.7147,470,1.5161
9.7190,473,1.5258
9.7233,444,1.4323
9.7281,437,1.4097
9.7325,464,1.4968
9.7368,479,1.5452
9.7411,461,1.4871
9.7454,442,1.4258
9.7498,447,1.4419
9.7541,473,1.5258
9.7585,479,1.5452
9.7628,453,1.4613
9.7671,438,1.4129
9.7713,455,1.4677
9.7760,473,1.5258
9.7803,461,1.4871
9.7846,436,1.4065
9.7889,432,1.3935
9.7933,460,1.4839
9.7976,466,1.5032
9.8019,441,1.4226
9.8061,422,1.3613
9.8104,431,1.3903
9.8147,453,1.4613
9.8190,454,1.4645
9.8232,424,1.3677
9.8275,412,1.3290
9.8319,433,1.3968
9.8363,449,1.4484
9.8405,437,1.4097
9.8449,414,1.3355
9.8491,411,1.3258
9.8534,437,1.4097
9.8578,448,1.4452
9.8620,425,1.3710
9.8663,408,1.3161
9.8705,419,1.3516
9.8747,441,1.4226
9.8791,443,1.4290
9.8834,413,1.3323
9.8876,400,1.2903
9.8918,424,1.3677
9.8960,445,1.4355
9.9003,437,1.4097
9.9046,411,1.3258
9.9089,404,1.3032
9.9133,432,1.3935
9.9176,443,1.4290
9.9220,420,1.3548
9.9263,401,1.2935
9.9306,411,1.3258
9.9349,433,1.3968
9.9396,433,1.3968
9.9440,407,1.3129
9.9484,399,1.2871
9.9526,424,1.3677
9.9569,439,1.4161
9.9611,423,1.3645
9.9654,402,1.2968
9.9697,409,1.3194
9.9741,441,1.4226
9.9784,452,1.4581
9.9828,428,1.3806
9.9873,413,1.3323
9.9917,438,1.4129
9.9962,463,1.4935
10.0014,457,1.4742
10.0206,452,1.4581
10.0252,422,1.3613
10.0307,421,1.3581
10.0351,432,1.3935
10.0395,426,1.3742
10.0439,396,1.2774
10.0483,386,1.2452
10.0527,414,1.3355
10.0571,430,1.3871
10.0615,413,1.3323
10.0658,392,1.2645
10.0703,400,1.2903
10.0747,424,1.3677
10.0791,423,1.3645
10.0836,385,1.2419
10.0880,363,1.1710
10.0924,380,1.2258
10.0967,403,1.3000
10.1011,421,1.3581
10.1055,465,1.5000
10.1098,558,1.8000
10.1142,711,2.2935
10.1186,876,2.8258
10.1230,988,3.1871
10.1273,1000,3.2258
10.1317,1002,3.2323
10.1361,988,3.1871
10.1405,830,2.6774
10.1454,596,1.9226
10.1497,456,1.4710
10.1541,398,1.2839
10.1585,374,1.2065
10.1629,345,1.1129
10.1672,333,1.0742
10.1716,358,1.1548
10.1760,381,1.2290
10.1804,373,1.2032
10.1848,344,1.1097
10.1893,343,1.1065
10.1937,371,1.1968
10.1981,383,1.2355
10.2025,360,1.1613
10.2069,347,1.1194
10.2113,366,1.1806
10.2167,393,1.2677
10.2211,377,1.2161
10.2256,359,1.1581
10.2300,365,1.1774
10.2344,395,1.2742
10.2388,406,1.3097
10.2432,382,1.2323
10.2481,373,1.2032
10.2525,401,1.2935
10.2568,421,1.3581
10.2612,411,1.3258
10.2656,392,1.2645
10.2700,397,1.2806
10.2744,430,1.3871
10.2788,442,1.4258
10.2831,420,1.3548
10.2875,408,1.3161
10.2919,436,1.4065
10.2963,463,1.4935
10.3007,459,1.4806
10.3056,438,1.4129
10.3100,446,1.4387
10.3143,481,1.5516
10.3187,497,1.6032
10.3231,477,1.5387
10.3275,464,1.4968
10.3319,496,1.6000
10.3363,521,1.6806
10.3406,519,1.6742
10.3450,497,1.6032
10.3494,500,1.6129
10.3538,532,1.7161
10.3583,543,1.7516
10.3627,520,1.6774
10.3671,507,1.6355
10.3715,525,1.6935
10.3758,544,1.7548
10.3802,537,1.7323
10.3845,503,1.6226
10.3889,488,1.5742
10.3933,506,1.6323
10.3976,510,1.6452
10.4020,478,1.5419
10.4063,449,1.4484
10.4107,450,1.4516
10.4150,465,1.5000
10.4194,460,1.4839
10.4238,423,1.3645
10.4281,403,1.3000
10.4329,426,1.3742
10.4373,440,1.4194
10.4416,421,1.3581
10.4460,400,1.2903
10.4504,406,1.3097
10.4547,433,1.3968
10.4591,438,1.4129
10.4635,410,1.3226
10.4678,400,1.2903
10.4722,425,1.3710
10.4765,448,1.4452
10.4809,440,1.4194
10.4853,420,1.3548
10.4896,421,1.3581
10.4945,454,1.4645
10.4988,463,1.4935
10.5032,439,1.4161
10.5075,428,1.3806
10.5119,453,1.4613
10.5162,476,1.5355
10.5206,472,1.5226
10.5249,444,1.4323
10.5293,441,1.4226
10.5336,473,1.5258
10.5378,487,1.5710
10.5421,465,1.5000
10.5464,446,1.4387
10.5507,454,1.4645
10.5549,479,1.5452
10.5591,486,1.5677
10.5634,460,1.4839
10.5676,447,1.4419
10.5718,466,1.5032
10.5763,487,1.5710
10.5805,483,1.5581
10.5848,456,1.4710
10.5895,450,1.4516
10.5937,479,1.5452
10.5980,492,1.5871
10.6022,472,1.5226
10.6070,452,1.4581
10.6113,465,1.5000
10.6156,488,1.5742
10.6198,492,1.5871
10.6241,467,1.5065
10.6283,456,1.4710
10.6325,479,1.5452
10.6367,497,1.6032
10.6410,488,1.5742
10.6453,463,1.4935
10.6495,460,1.4839
10.6537,487,1.5710
10.6579,500,1.6129
10.6622,481,1.5516
10.6664,464,1.4968
10.6706,474,1.5290
10.6748,501,1.6161
10.6791,508,1.6387
10.6833,482,1.5548
10.6876,469,1.5129
10.6918,488,1.5742
10.6960,508,1.6387
10.7002,508,1.6387
10.7046,481,1.5516
10.7088,473,1.5258
10.7131,502,1.6194
10.7173,517,1.6677
10.7216,502,1.6194
10.7258,481,1.5516
10.7301,482,1.5548
10.7343,511,1.6484
10.7385,522,1.6839
10.7428,500,1.6129
10.7471,484,1.5613
10.7513,497,1.6032
10.7555,522,1.6839
10.7600,527,1.7000
10.7643,502,1.6194
10.7685,498,1.6065
10.7727,527,1.7000
10.7769,546,1.7613
10.7811,539,1.7387
10.7854,522,1.6839
10.7897,531,1.7129
10.7939,567,1.8290
10.7981,581,1.8742
10.8024,557,1.7968
10.8066,529,1.7065
10.8109,533,1.7194
10.8159,552,1.7806
10.8202,542,1.7484
10.8245,507,1.6355
10.8288,494,1.5935
10.8330,519,1.6742
10.8372,536,1.7290
10.8417,523,1.6871
10.8460,503,1.6226
10.8502,504,1.6258
10.8544,531,1.7129
10.8586,540,1.7419
10.8628,517,1.6677
10.8671,496,1.6000
10.8713,500,1.6129
10.8755,514,1.6581
10.8797,510,1.6452
10.8839,479,1.5452
10.8882,482,1.5548
10.8924,554,1.7871
10.8967,648,2.0903
10.9009,745,2.4032
10.9051,855,2.7581
10.9094,990,3.1935
10.9136,1001,3.2290
10.9178,1002,3.2323
10.9221,1002,3.2323
10.9263,998,3.2194
10.9306,928,2.9935
10.9348,772,2.4903
10.9392,619,1.9968
10.9440,486,1.5677
10.9483,445,1.4355
10.9525,467,1.5065
10.9567,492,1.5871
10.9609,492,1.5871
10.9652,468,1.5097
10.9694,462,1.4903
10.9736,488,1.5742
10.9778,503,1.6226
10.9820,489,1.5774
10.9863,468,1.5097
10.9907,473,1.5258
10.9950,502,1.6194
10.9994,513,1.6548
11.0038,486,1.5677
11.0083,474,1.5290
11.0126,498,1.6065
11.0169,520,1.6774
11.0212,514,1.6581
11.0259,491,1.5839
11.0303,494,1.5935
11.0347,526,1.6968
11.0390,541,1.7452
11.0433,519,1.6742
11.0476,506,1.6323
11.0519,526,1.6968
11.0562,551,1.7774
11.0605,552,1.7806
11.0648,527,1.7000
11.0691,522,1.6839
11.0734,552,1.7806
11.0776,571,1.8419
11.0818,562,1.8129
11.0860,543,1.7516
11.0902,547,1.7645
11.0945,583,1.8806
11.0987,600,1.9355
11.1029,582,1.8774
11.1077,567,1.8290
11.1120,588,1.8968
11.1163,613,1.9774
11.1206,620,2.0000
11.1248,599,1.9323
11.1290,596,1.9226
11.1333,627,2.0226
11.1375,646,2.0839
11.1417,636,2.0516
11.1460,615,1.9839
11.1502,615,1.9839
11.1545,646,2.0839
11.1587,659,2.1258
11.1630,635,2.0484
11.1672,614,1.9806
11.1716,618,1.9935
11.1759,635,2.0484
11.1802,628,2.0258
11.1846,591,1.9065
11.1896,571,1.8419
11.1939,587,1.8935
11.1983,591,1.9065
11.2026,560,1.8065
11.2070,532,1.7161
11.2112,530,1.7097
11.2156,550,1.7742
11.2198,552,1.7806
11.2242,522,1.6839
11.2285,503,1.6226
11.2332,525,1.6935
11.2375,543,1.7516
11.2418,532,1.7161
11.2460,510,1.6452
11.2502,506,1.6323
11.2550,536,1.7290
11.2593,547,1.7645
11.2635,527,1.7000
11.2677,512,1.6516
11.2720,529,1.7065
11.2762,552,1.7806
11.2805,556,1.7935
11.2847,531,1.7129
11.2889,522,1.6839
11.2931,548,1.7677
11.2974,568,1.8323
11.3016,562,1.8129
11.3058,537,1.7323
11.3101,533,1.7194
11.3145,561,1.8097
11.3188,573,1.8484
11.3231,552,1.7806
11.3275,533,1.7194
11.3318,543,1.7516
11.3361,567,1.8290
11.3406,567,1.8290
11.3449,540,1.7419
11.3493,531,1.7129
11.3537,555,1.7903
11.3581,569,1.8355
11.3624,550,1.7742
11.3667,527,1.7000
11.3709,528,1.7032
11.3752,556,1.7935
11.3795,566,1.8258
11.3837,543,1.7516
11.3880,525,1.6935
11.3923,541,1.7452
11.3966,560,1.8065
11.4009,558,1.8000
11.4052,531,1.7129
11.4098,523,1.6871
11.4143,552,1.7806
11.4185,566,1.8258
11.4228,548,1.7677
11.4270,525,1.6935
11.4312,527,1.7000
11.4354,554,1.7871
11.4397,563,1.8161
11.4439,536,1.7290
11.4482,523,1.6871
11.4524,540,1.7419
11.4566,561,1.8097
11.4609,561,1.8097
11.4651,532,1.7161
11.4695,523,1.6871
11.4737,550,1.7742
11.4780,568,1.8323
11.4823,555,1.7903
11.4865,533,1.7194
11.4908,530,1.7097
11.4951,557,1.7968
11.4995,564,1.8194
11.5039,539,1.7387
11.5082,523,1.6871
11.5125,540,1.7419
11.5169,562,1.8129
11.5212,559,1.8032
11.5255,535,1.7258
11.5298,528,1.7032
11.5341,557,1.7968
11.5384,573,1.8484
11.5426,557,1.7968
11.5469,539,1.7387
11.5511,546,1.7613
11.5553,580,1.8710
11.5596,602,1.9419
11.5638,585,1.8871
11.5680,565,1.8226
11.5723,571,1.8419
11.5765,585,1.8871
11.5808,580,1.8710
11.5851,544,1.7548
11.5894,525,1.6935
11.5937,543,1.7516
11.5984,555,1.7903
11.6026,538,1.7355
11.6069,517,1.6677
11.6112,520,1.6774
11.6155,547,1.7645
11.6199,554,1.7871
11.6242,530,1.7097
11.6285,513,1.6548
11.6328,528,1.7032
11.6371,542,1.7484
11.6415,528,1.7032
11.6458,493,1.5903
11.6502,479,1.5452
11.6545,509,1.6419
11.6588,553,1.7839
11.6631,598,1.9290
11.6674,665,2.1452
11.6716,785,2.5323
11.6760,944,3.0452
11.6803,997,3.2161
11.6846,1000,3.2258
11.6888,1000,3.2258
11.6930,997,3.2161
11.6973,937,3.0226
11.7015,787,2.5387
11.7058,633,2.0419
11.7100,527,1.7000
11.7143,485,1.5645
11.7204,468,1.5097
11.7247,443,1.4290
11.7290,436,1.4065
11.7333,464,1.4968
11.7375,487,1.5710
11.7417,483,1.5581
11.7460,458,1.4774
11.7503,451,1.4548
11.7545,479,1.5452
11.7588,495,1.5968
11.7630,478,1.5419
11.7673,457,1.4742
11.7715,462,1.4903
11.7757,490,1.5806
11.7800,500,1.6129
11.7843,476,1.5355
11.7887,463,1.4935
11.7930,484,1.5613
11.7979,509,1.6419
11.8023,499,1.6097
11.8074,476,1.5355
11.8117,484,1.5613
11.8160,513,1.6548
11.8203,522,1.6839
11.8246,499,1.6097
11.8289,486,1.5677
11.8332,510,1.6452
11.8375,533,1.7194
11.8418,529,1.7065
11.8461,504,1.6258
11.8504,501,1.6161
11.8547,532,1.7161
11.8590,550,1.7742
11.8633,536,1.7290
11.8676,522,1.6839
11.8719,534,1.7226
11.8763,567,1.8290
11.8806,576,1.8581
11.8849,555,1.7903
11.8891,548,1.7677
11.8934,572,1.8452
11.8976,597,1.9258
11.9019,594,1.9161
11.9062,573,1.8484
11.9105,569,1.8355
11.9147,599,1.9323
11.9189,613,1.9774
11.9232,595,1.9194
11.9274,578,1.8645
11.9317,580,1.8710
11.9359,602,1.9419
11.9401,604,1.9484
11.9444,573,1.8484
11.9486,548,1.7677
11.9529,553,1.7839
11.9571,562,1.8129
11.9613,552,1.7806
11.9655,514,1.6581
11.9698,491,1.5839
11.9740,505,1.6290
11.9783,512,1.6516
11.9825,493,1.5903
11.9869,463,1.4935
11.9911,458,1.4774
11.9954,483,1.5581
11.9996,494,1.5935
12.0038,470,1.5161
12.0081,451,1.4548
12.0124,463,1.4935
12.0167,482,1.5548
12.0211,487,1.5710
12.0254,460,1.4839
12.0298,451,1.4548
12.0341,477,1.5387
12.0384,495,1.5968
12.0427,482,1.5548
12.0470,460,1.4839
12.0513,463,1.4935
12.0558,493,1.5903
12.0601,502,1.6194
12.0644,477,1.5387
12.0689,464,1.4968
12.0732,483,1.5581
12.0775,503,1.6226
12.0818,501,1.6161
12.0861,477,1.5387
12.0905,470,1.5161
12.0948,496,1.6000
12.0991,512,1.6516
12.1035,492,1.5871
12.1078,470,1.5161
12.1121,477,1.5387
12.1169,502,1.6194
12.1211,505,1.6290
12.1254,476,1.5355
12.1296,464,1.4968
12.1344,488,1.5742
12.1386,504,1.6258
12.1428,489,1.5774
12.1471,466,1.5032
12.1513,466,1.5032
12.1556,493,1.5903
12.1598,503,1.6226
12.1640,480,1.5484
12.1682,461,1.4871
12.1724,471,1.5194
12.1767,494,1.5935
12.1809,496,1.6000
12.1851,469,1.5129
12.1893,457,1.4742
12.1936,478,1.5419
12.1979,497,1.6032
12.2021,492,1.5871
12.2063,464,1.4968
12.2105,457,1.4742
12.2148,485,1.5645
12.2190,502,1.6194
12.2233,487,1.5710
12.2275,463,1.4935
12.2317,462,1.4903
12.2359,491,1.5839
12.2403,501,1.6161
12.2446,474,1.5290
12.2490,459,1.4806
12.2533,476,1.5355
12.2577,499,1.6097
12.2620,497,1.6032
12.2663,470,1.5161
12.2706,464,1.4968
12.2748,494,1.5935
12.2792,514,1.6581
12.2835,500,1.6129
12.2877,483,1.5581
12.2920,489,1.5774
12.2963,521,1.6806
12.3006,536,1.7290
12.3048,521,1.6806
12.3091,513,1.6548
12.3133,531,1.7129
12.3176,545,1.7581
12.3219,535,1.7258
12.3261,500,1.6129
12.3304,485,1.5645
12.3346,504,1.6258
12.3389,511,1.6484
12.3431,491,1.5839
12.3474,465,1.5000
12.3522,469,1.5129
12.3565,496,1.6000
12.3609,504,1.6258
12.3652,476,1.5355
12.3696,464,1.4968
12.3739,486,1.5677
12.3782,504,1.6258
12.3826,491,1.5839
12.3870,455,1.4677
12.3913,443,1.4290
12.3962,465,1.5000
12.4006,481,1.5516
12.4049,492,1.5871
12.4092,545,1.7581
12.4138,661,2.1323
12.4181,809,2.6097
12.4224,946,3.0516
12.4268,999,3.2226
12.4311,999,3.2226
12.4356,1000,3.2258
12.4401,995,3.2097
12.4446,844,2.7226
12.4490,662,2.1355
12.4535,552,1.7806
12.4580,485,1.5645
12.4624,440,1.4194
12.4669,407,1.3129
12.4714,408,1.3161
12.4759,443,1.4290
12.4803,455,1.4677
12.4847,431,1.3903
12.4891,414,1.3355
12.4935,431,1.3903
12.4979,453,1.4613
12.5023,449,1.4484
12.5067,422,1.3613
12.5111,419,1.3516
12.5154,450,1.4516
12.5198,465,1.5000
12.5242,444,1.4323
12.5285,428,1.3806
12.5329,442,1.4258
12.5373,467,1.5065
12.5417,471,1.5194
12.5461,446,1.4387
12.5504,440,1.4194
12.5548,470,1.5161
12.5592,489,1.5774
12.5636,472,1.5226
12.5680,453,1.4613
12.5724,462,1.4903
12.5768,492,1.5871
12.5813,500,1.6129
12.5856,476,1.5355
12.5900,465,1.5000
12.5944,494,1.5935
12.5988,516,1.6645
12.6032,509,1.6419
12.6076,491,1.5839
12.6120,495,1.5968
12.6172,532,1.7161
12.6223,538,1.7355
12.6266,516,1.6645
12.6310,515,1.6613
12.6353,547,1.7645
12.6402,567,1.8290
12.6446,548,1.7677
12.6491,535,1.7258
12.6535,554,1.7871
12.6579,578,1.8645
12.6623,580,1.8710
12.6667,555,1.7903
12.6711,546,1.7613
12.6755,574,1.8516
12.6799,587,1.8935
12.6843,561,1.8097
12.6887,534,1.7226
12.6931,537,1.7323
12.6975,553,1.7839
12.7019,546,1.7613
12.7063,507,1.6355
12.7107,486,1.5677
12.7154,502,1.6194
12.7197,506,1.6323
12.7241,478,1.5419
12.7292,447,1.4419
12.7336,457,1.4742
12.7380,472,1.5226
12.7424,466,1.5032
12.7468,438,1.4129
12.7518,432,1.3935
12.7561,462,1.4903
12.7605,473,1.5258
12.7649,448,1.4452
12.7693,432,1.3935
12.7737,451,1.4548
12.7781,474,1.5290
12.7825,474,1.5290
12.7869,449,1.4484
12.7913,445,1.4355
12.7957,474,1.5290
12.8001,489,1.5774
12.8044,469,1.5129
12.8088,453,1.4613
12.8133,466,1.5032
12.8176,490,1.5806
12.8220,493,1.5903
12.8265,466,1.5032
12.8309,455,1.4677
12.8353,482,1.5548
12.8397,498,1.6065
12.8442,479,1.5452
12.8489,457,1.4742
12.8532,469,1.5129
12.8576,492,1.5871
12.8620,496,1.6000
12.8664,465,1.5000
12.8708,454,1.4645
12.8752,480,1.5484
12.8796,494,1.5935
12.8840,478,1.5419
12.8883,456,1.4710
12.8927,461,1.4871
12.8971,484,1.5613
12.9014,489,1.5774
12.9058,460,1.4839
12.9108,446,1.4387
12.9152,471,1.5194
12.9196,489,1.5774
12.9239,472,1.5226
12.9283,450,1.4516
12.9327,454,1.4645
12.9371,482,1.5548
12.9414,489,1.5774
12.9458,459,1.4806
12.9501,446,1.4387
12.9544,469,1.5129
12.9588,489,1.5774
12.9632,480,1.5484
12.9675,455,1.4677
12.9723,453,1.4613
12.9766,483,1.5581
12.9810,494,1.5935
12.9853,467,1.5065
12.9897,451,1.4548
12.9940,470,1.5161
12.9984,493,1.5903
13.0027,491,1.5839
13.0071,462,1.4903
13.0115,459,1.4806
13.0162,488,1.5742
13.0205,501,1.6161
13.0249,479,1.5452
13.0293,465,1.5000
13.0338,487,1.5710
13.0382,513,1.6548
13.0426,514,1.6581
13.0469,488,1.5742
13.0513,487,1.5710
13.0556,520,1.6774
13.0600,545,1.7581
13.0643,533,1.7194
13.0687,510,1.6452
13.0730,509,1.6419
13.0774,528,1.7032
13.0817,529,1.7065
13.0860,492,1.5871
13.0903,468,1.5097
13.0953,485,1.5645
13.0996,500,1.6129
13.1039,485,1.5645
13.1082,463,1.4935
13.1125,467,1.5065
13.1167,494,1.5935
13.1211,505,1.6290
13.1254,479,1.5452
13.1297,460,1.4839
13.1339,474,1.5290
13.1383,489,1.5774
13.1427,476,1.5355
13.1470,440,1.4194
13.1512,427,1.3774
13.1555,463,1.4935
13.1599,519,1.6742
13.1642,572,1.8452
13.1685,646,2.0839
13.1727,777,2.5065
13.1771,960,3.0968
13.1813,1002,3.2323
13.1856,1002,3.2323
13.1899,1000,3.2258
13.1941,998,3.2194
13.1984,927,2.9903
13.2027,742,2.3935
13.2070,552,1.7806
13.2113,445,1.4355
13.2157,433,1.3968
13.2200,446,1.4387
13.2243,435,1.4032
13.2286,419,1.3516
13.2328,424,1.3677
13.2371,451,1.4548
13.2414,457,1.4742
13.2457,430,1.3871
13.2500,415,1.3387
13.2542,431,1.3903
13.2587,455,1.4677
13.2630,455,1.4677
13.2673,431,1.3903
13.2715,423,1.3645
13.2758,449,1.4484
13.2800,468,1.5097
13.2843,456,1.4710
13.2885,438,1.4129
13.2927,444,1.4323
13.2969,475,1.5323
13.3011,487,1.5710
13.3054,465,1.5000
13.3096,447,1.4419
13.3139,467,1.5065
13.3181,494,1.5935
13.3224,498,1.6065
13.3266,472,1.5226
13.3309,464,1.4968
13.3351,491,1.5839
13.3394,515,1.6613
13.3438,509,1.6419
13.3481,488,1.5742
13.3524,490,1.5806
13.3570,522,1.6839
13.3613,537,1.7323
13.3656,518,1.6710
13.3699,505,1.6290
13.3742,525,1.6935
13.3785,552,1.7806
13.3828,559,1.8032
13.3872,536,1.7290
13.3915,534,1.7226
13.3958,566,1.8258
13.4001,588,1.8968
13.4043,578,1.8645
13.4086,558,1.8000
13.4129,560,1.8065
13.4171,588,1.8968
13.4215,598,1.9290
13.4263,572,1.8452
13.4307,558,1.8000
13.4350,578,1.8645
13.4394,592,1.9097
13.4437,578,1.8645
13.4481,544,1.7548
13.4524,531,1.7129
13.4567,548,1.7677
13.4610,550,1.7742
13.4654,516,1.6645
13.4697,487,1.5710
13.4741,490,1.5806
13.4784,503,1.6226
13.4827,498,1.6065
13.4870,466,1.5032
13.4914,451,1.4548
13.4957,473,1.5258
13.5001,486,1.5677
13.5044,471,1.5194
13.5087,451,1.4548
13.5130,454,1.4645
13.5174,480,1.5484
13.5218,491,1.5839
13.5261,467,1.5065
13.5304,454,1.4645
13.5347,474,1.5290
13.5390,496,1.6000
13.5433,496,1.6000
13.5476,472,1.5226
13.5520,468,1.5097
13.5563,497,1.6032
13.5609,511,1.6484
13.5658,490,1.5806
13.5701,476,1.5355
13.5744,492,1.5871
13.5787,512,1.6516
13.5829,515,1.6613
13.5872,486,1.5677
13.5915,475,1.5323
13.5958,500,1.6129
13.6001,518,1.6710
13.6044,504,1.6258
13.6088,481,1.5516
13.6132,483,1.5581
13.6175,509,1.6419
13.6218,518,1.6710
13.6262,493,1.5903
13.6305,476,1.5355
13.6348,494,1.5935
13.6391,514,1.6581
13.6434,510,1.6452
13.6477,483,1.5581
13.6520,475,1.5323
13.6562,500,1.6129
13.6604,514,1.6581
13.6647,497,1.6032
13.6689,474,1.5290
13.6732,476,1.5355
13.6775,504,1.6258
13.6818,513,1.6548
13.6861,489,1.5774
13.6904,473,1.5258
13.6948,488,1.5742
13.6990,508,1.6387
13.7032,510,1.6452
13.7075,485,1.5645
13.7117,476,1.5355
13.7160,502,1.6194
13.7202,517,1.6677
13.7245,504,1.6258
13.7287,482,1.5548
13.7335,485,1.5645
13.7378,510,1.6452
13.7420,521,1.6806
13.7462,495,1.5968
13.7504,479,1.5452
13.7547,496,1.6000
13.7589,517,1.6677
13.7631,519,1.6742
13.7674,491,1.5839
13.7716,482,1.5548
13.7759,508,1.6387
13.7801,527,1.7000
13.7843,519,1.6742
13.7886,500,1.6129
13.7928,502,1.6194
13.7971,530,1.7097
13.8013,544,1.7548
13.8055,526,1.6968
13.8103,515,1.6613
13.8154,549,1.7710
13.8216,573,1.8484
13.8259,544,1.7548
13.8301,519,1.6742
13.8343,524,1.6903
13.8386,537,1.7323
13.8428,534,1.7226
13.8471,500,1.6129
13.8513,483,1.5581
13.8555,503,1.6226
13.8598,522,1.6839
13.8640,516,1.6645
13.8683,492,1.5871
13.8725,485,1.5645
13.8768,511,1.6484
13.8810,525,1.6935
13.8853,504,1.6258
13.8895,483,1.5581
13.8937,480,1.5484
13.8980,498,1.6065
13.9022,497,1.6032
13.9064,464,1.4968
13.9111,463,1.4935
13.9153,527,1.7000
13.9196,618,1.9935
13.9239,711,2.2935
13.9283,824,2.6581
13.9326,965,3.1129
13.9369,1003,3.2355
13.9412,1003,3.2355
13.9455,1003,3.2355
13.9498,996,3.2129
13.9542,887,2.8613
13.9585,724,2.3355
13.9627,581,1.8742
13.9671,465,1.5000
13.9713,423,1.3645
13.9756,443,1.4290
13.9799,466,1.5032
13.9842,465,1.5000
13.9885,442,1.4258
13.9928,438,1.4129
13.9971,464,1.4968
14.0014,476,1.5355
14.0057,457,1.4742
14.0100,440,1.4194
14.0143,448,1.4452
14.0186,472,1.5226
14.0229,478,1.5419
14.0272,454,1.4645
14.0315,443,1.4290
14.0361,468,1.5097
14.0404,488,1.5742
14.0447,478,1.5419
14.0490,457,1.4742
14.0533,459,1.4806
14.0575,492,1.5871
14.0622,505,1.6290
14.0665,482,1.5548
14.0708,466,1.5032
14.0751,487,1.5710
14.0794,511,1.6484
14.0837,514,1.6581
14.0880,490,1.5806
14.0922,485,1.5645
14.0965,515,1.6613
14.1010,535,1.7258
14.1054,524,1.6903
14.1097,507,1.6355
14.1141,516,1.6645
14.1184,546,1.7613
14.1228,554,1.7871
14.1271,535,1.7258
14.1314,525,1.6935
14.1357,554,1.7871
14.1399,580,1.8710
14.1443,581,1.8742
14.1486,560,1.8065
14.1528,557,1.7968
14.1571,589,1.9000
14.1614,605,1.9516
14.1657,591,1.9065
14.1700,574,1.8516
14.1743,582,1.8774
14.1786,607,1.9581
14.1835,611,1.9710
14.1878,584,1.8839
14.1921,569,1.8355
14.1964,588,1.8968
14.2007,597,1.9258
14.2050,576,1.8581
14.2093,543,1.7516
14.2135,531,1.7129
14.2178,550,1.7742
14.2221,548,1.7677
14.2264,513,1.6548
14.2308,486,1.5677
14.2351,494,1.5935
14.2394,511,1.6484
14.2437,508,1.6387
14.2480,477,1.5387
14.2523,462,1.4903
14.2566,484,1.5613
14.2613,504,1.6258
14.2656,483,1.5581
14.2699,464,1.4968
14.2741,471,1.5194
14.2785,498,1.6065
14.2827,506,1.6323
14.2871,479,1.5452
14.2914,466,1.5032
14.2957,489,1.5774
14.3000,509,1.6419
14.3043,505,1.6290
14.3086,480,1.5484
14.3129,473,1.5258
14.3172,503,1.6226
14.3215,519,1.6742
14.3258,503,1.6226
14.3301,482,1.5548
14.3344,489,1.5774
14.3387,516,1.6645
14.3430,521,1.6806
14.3473,493,1.5903
14.3516,477,1.5387
14.3558,497,1.6032
14.3600,517,1.6677
14.3643,514,1.6581
14.3686,486,1.5677
14.3728,476,1.5355
14.3770,503,1.6226
14.3812,519,1.6742
14.3855,500,1.6129
14.3899,480,1.5484
14.3942,483,1.5581
14.3985,507,1.6355
14.4028,513,1.6548
14.4071,484,1.5613
14.4116,470,1.5161
14.4160,492,1.5871
14.4221,512,1.6516
14.4264,487,1.5710
14.4307,468,1.5097
14.4351,480,1.5484
14.4394,506,1.6323
14.4436,510,1.6452
14.4479,481,1.5516
14.4522,468,1.5097
14.4565,490,1.5806
14.4608,509,1.6419
14.4656,495,1.5968
14.4699,474,1.5290
14.4742,476,1.5355
14.4785,501,1.6161
14.4828,511,1.6484
14.4870,487,1.5710
14.4913,473,1.5258
14.4957,489,1.5774
14.4999,508,1.6387
14.5042,506,1.6323
14.5084,480,1.5484
14.5126,474,1.5290
14.5168,502,1.6194
14.5211,521,1.6806
14.5254,509,1.6419
14.5296,492,1.5871
14.5339,494,1.5935
14.5381,521,1.6806
14.5423,534,1.7226
14.5465,519,1.6742
14.5507,512,1.6516
14.5550,533,1.7194
14.5592,560,1.8065
14.5634,562,1.8129
14.5676,523,1.6871
14.5719,500,1.6129
14.5761,513,1.6548
14.5803,523,1.6871
14.5845,513,1.6548
14.5888,480,1.5484
14.5930,472,1.5226
14.5972,499,1.6097
14.6014,515,1.6613
14.6057,501,1.6161
14.6099,481,1.5516
14.6141,480,1.5484
14.6184,503,1.6226
14.6226,513,1.6548
14.6269,487,1.5710
14.6311,465,1.5000
14.6354,471,1.5194
14.6396,486,1.5677
14.6438,483,1.5581
14.6480,462,1.4903
14.6522,482,1.5548
14.6566,571,1.8419
14.6609,680,2.1935
14.6652,796,2.5677
14.6698,909,2.9323
14.6741,997,3.2161
14.6785,999,3.2226
14.6829,1000,3.2258
14.6873,947,3.0548
14.6916,791,2.5516
14.6960,677,2.1839
14.7003,596,1.9226
14.7046,507,1.6355
14.7089,427,1.3774
14.7132,401,1.2935
14.7183,435,1.4032
14.7226,451,1.4548
14.7269,433,1.3968
14.7314,422,1.3613
14.7357,440,1.4194
14.7401,464,1.4968
14.7444,465,1.5000
14.7487,438,1.4129
14.7530,430,1.3871
14.7573,456,1.4710
14.7616,473,1.5258
14.7659,460,1.4839
14.7702,442,1.4258
14.7745,446,1.4387
14.7789,477,1.5387
14.7832,488,1.5742
14.7878,461,1.4871
14.7920,449,1.4484
14.7969,475,1.5323
14.8011,493,1.5903
14.8053,485,1.5645
14.8095,464,1.4968
14.8138,463,1.4935
14.8180,494,1.5935
14.8223,512,1.6516
14.8266,495,1.5968
14.8309,478,1.5419
14.8351,489,1.5774
14.8394,519,1.6742
14.8436,529,1.7065
14.8478,507,1.6355
14.8520,496,1.6000
14.8562,517,1.6677
14.8605,543,1.7516
14.8647,546,1.7613
14.8693,525,1.6935
14.8736,525,1.6935
14.8779,558,1.8000
14.8822,576,1.8581
14.8865,561,1.8097
14.8908,546,1.7613
14.8951,561,1.8097
14.8994,592,1.9097
14.9037,601,1.9387
14.9081,573,1.8484
14.9124,560,1.8065
14.9166,582,1.8774
14.9209,599,1.9323
14.9256,591,1.9065
14.9299,563,1.8161
14.9341,557,1.7968
14.9383,578,1.8645
14.9426,583,1.8806
14.9468,553,1.7839
14.9510,525,1.6935
14.9552,521,1.6806
14.9594,533,1.7194
14.9637,533,1.7194
14.9679,496,1.6000
14.9721,475,1.5323
14.9765,486,1.5677
14.9808,500,1.6129
14.9850,491,1.5839
14.9892,463,1.4935
14.9934,452,1.4581
14.9977,481,1.5516
15.0020,497,1.6032
15.0074,472,1.5226
15.0194,493,1.5903
15.0240,499,1.6097
15.0285,472,1.5226
15.0329,464,1.4968
15.0372,490,1.5806
15.0414,509,1.6419
15.0457,500,1.6129
15.0499,477,1.5387
15.0541,475,1.5323
15.0584,504,1.6258
15.0626,517,1.6677
15.0669,497,1.6032
15.0712,478,1.5419
15.0755,488,1.5742
15.0797,513,1.6548
15.0840,518,1.6710
15.0882,489,1.5774
15.0924,477,1.5387
15.0966,498,1.6065
15.1008,515,1.6613
15.1051,511,1.6484
15.1093,484,1.5613
15.1135,473,1.5258
15.1177,500,1.6129
15.1220,517,1.6677
15.1264,501,1.6161
15.1306,477,1.5387
15.1349,479,1.5452
15.1392,504,1.6258
15.1434,511,1.6484
15.1477,484,1.5613
15.1519,469,1.5129
15.1561,483,1.5581
15.1605,505,1.6290
15.1648,505,1.6290
15.1692,478,1.5419
15.1736,471,1.5194
15.1779,497,1.6032
15.1823,512,1.6516
15.1867,494,1.5935
15.1910,473,1.5258
15.1953,476,1.5355
15.1996,502,1.6194
15.2039,511,1.6484
15.2082,483,1.5581
15.2125,468,1.5097
15.2168,490,1.5806
15.2210,511,1.6484
15.2253,507,1.6355
15.2296,481,1.5516
15.2339,473,1.5258
15.2381,502,1.6194
15.2424,516,1.6645
15.2467,497,1.6032
15.2509,477,1.5387
15.2551,481,1.5516
15.2593,509,1.6419
15.2635,521,1.6806
15.2678,501,1.6161
15.2720,488,1.5742
15.2769,510,1.6452
15.2812,528,1.7032
15.2856,526,1.6968
15.2901,509,1.6419
15.2945,517,1.6677
15.2989,554,1.7871
15.3041,563,1.8161
15.3086,528,1.7032
15.3130,504,1.6258
15.3193,528,1.7032
15.3236,531,1.7129
15.3280,496,1.6000
15.3325,472,1.5226
15.3376,496,1.6000
15.3420,513,1.6548
15.3465,499,1.6097
15.3510,476,1.5355
15.3554,481,1.5516
15.3597,511,1.6484
15.3641,517,1.6677
15.3685,486,1.5677
15.3730,466,1.5032
15.3779,483,1.5581
15.3823,488,1.5742
15.3867,463,1.4935
15.3911,450,1.4516
15.3955,497,1.6032
15.3998,597,1.9258
15.4042,702,2.2645
15.4086,808,2.6065
15.4130,945,3.0484
15.4174,1001,3.2290
15.4217,1003,3.2355
15.4261,1000,3.2258
15.4305,998,3.2194
15.4349,882,2.8452
15.4393,719,2.3194
15.4437,581,1.8742
15.4481,464,1.4968
15.4524,411,1.3258
15.4568,424,1.3677
15.4612,452,1.4581
15.4656,453,1.4613
15.4700,429,1.3839
15.4746,424,1.3677
15.4789,451,1.4548
15.4833,464,1.4968
15.4877,441,1.4226
15.4921,424,1.3677
15.4965,443,1.4290
15.5009,467,1.5065
15.5053,466,1.5032
15.5097,439,1.4161
15.5141,434,1.4000
15.5184,464,1.4968
15.5228,482,1.5548
15.5272,464,1.4968
15.5316,445,1.4355
15.5359,458,1.4774
15.5403,488,1.5742
15.5448,494,1.5935
15.5491,468,1.5097
15.5536,459,1.4806
15.5580,486,1.5677
15.5624,506,1.6323
15.5667,496,1.6000
15.5715,477,1.5387
15.5758,485,1.5645
15.5802,514,1.6581
15.5847,523,1.6871
15.5891,500,1.6129
15.5935,492,1.5871
15.5979,522,1.6839
15.6023,544,1.7548
15.6067,533,1.7194
15.6111,516,1.6645
15.6156,525,1.6935
15.6200,557,1.7968
15.6244,573,1.8484
15.6288,551,1.7774
15.6331,541,1.7452
15.6375,566,1.8258
15.6419,590,1.9032
15.6463,584,1.8839
15.6506,561,1.8097
15.6550,557,1.7968
15.6594,586,1.8903
15.6638,596,1.9226
15.6682,572,1.8452
15.6726,554,1.7871
15.6769,564,1.8194
15.6813,582,1.8774
15.6857,569,1.8355
15.6901,528,1.7032
15.6948,512,1.6516
15.6992,530,1.7097
15.7036,529,1.7065
15.7080,496,1.6000
15.7124,469,1.5129
15.7168,475,1.5323
15.7212,491,1.5839
15.7256,487,1.5710
15.7300,454,1.4645
15.7344,446,1.4387
15.7388,474,1.5290
15.7432,489,1.5774
15.7476,468,1.5097
15.7520,447,1.4419
15.7566,459,1.4806
15.7609,485,1.5645
15.7653,491,1.5839
15.7697,465,1.5000
15.7741,459,1.4806
15.7785,486,1.5677
15.7829,506,1.6323
15.7873,488,1.5742
15.7918,468,1.5097
15.7962,477,1.5387
15.8006,505,1.6290
15.8050,511,1.6484
15.8094,484,1.5613
15.8138,474,1.5290
15.8182,497,1.6032
15.8225,514,1.6581
15.8269,500,1.6129
15.8313,478,1.5419
15.8356,479,1.5452
15.8400,506,1.6323
15.8444,514,1.6581
15.8487,486,1.5677
15.8531,471,1.5194
15.8574,489,1.5774
15.8618,509,1.6419
15.8662,502,1.6194
15.8706,474,1.5290
15.8749,469,1.5129
15.8795,497,1.6032
15.8839,507,1.6355
15.8883,482,1.5548
15.8926,466,1.5032
15.8970,481,1.5516
15.9013,500,1.6129
15.9057,498,1.6065
15.9100,472,1.5226
15.9144,465,1.5000
15.9187,488,1.5742
15.9231,503,1.6226
15.9274,487,1.5710
15.9318,467,1.5065
15.9362,472,1.5226
15.9411,497,1.6032
15.9455,499,1.6097
15.9498,472,1.5226
15.9542,464,1.4968
15.9585,492,1.5871
15.9629,507,1.6355
15.9673,492,1.5871
15.9716,471,1.5194
15.9760,474,1.5290
15.9803,502,1.6194
15.9847,509,1.6419
15.9891,483,1.5581
15.9934,470,1.5161
15.9978,491,1.5839
16.0026,512,1.6516
16.0070,500,1.6129
16.0113,480,1.5484
16.0157,485,1.5645
16.0200,517,1.6677
16.0244,531,1.7129
16.0287,506,1.6323
16.0331,493,1.5903
16.0375,520,1.6774
16.0418,548,1.7677
16.0461,553,1.7839
16.0504,528,1.7032
16.0547,515,1.6613
16.0590,532,1.7161
16.0633,541,1.7452
16.0682,513,1.6548
16.0725,486,1.5677
16.0768,490,1.5806
16.0810,505,1.6290
16.0853,507,1.6355
16.0896,479,1.5452
16.0938,469,1.5129
16.0981,492,1.5871
16.1023,510,1.6452
16.1065,502,1.6194
16.1107,477,1.5387
16.1150,469,1.5129
16.1192,492,1.5871
16.1234,498,1.6065
16.1276,473,1.5258
16.1319,444,1.4323
16.1362,439,1.4161
16.1404,477,1.5387
16.1446,528,1.7032
16.1488,577,1.8613
16.1531,658,2.1226
16.1575,812,2.6194
16.1618,986,3.1806
16.1662,1003,3.2355
16.1705,1002,3.2323
16.1749,1000,3.2258
16.1792,999,3.2226
16.1834,920,2.9677
16.1877,715,2.3065
16.1920,542,1.7484
16.1962,451,1.4548
16.2004,445,1.4355
16.2047,452,1.4581
16.2089,433,1.3968
16.2133,422,1.3613
16.2184,448,1.4452
16.2227,465,1.5000
16.2275,450,1.4516
16.2319,429,1.3839
16.2362,431,1.3903
16.2405,458,1.4774
16.2447,468,1.5097
16.2490,445,1.4355
16.2533,431,1.3903
16.2577,449,1.4484
16.2620,472,1.5226
16.2663,471,1.5194
16.2706,447,1.4419
16.2749,441,1.4226
16.2792,471,1.5194
16.2834,490,1.5806
16.2877,474,1.5290
16.2920,454,1.4645
16.2962,458,1.4774
16.3005,487,1.5710
16.3047,500,1.6129
16.3093,477,1.5387
16.3135,465,1.5000
16.3178,487,1.5710
16.3220,513,1.6548
16.3262,515,1.6613
16.3304,492,1.5871
16.3347,484,1.5613
16.3390,513,1.6548
16.3432,535,1.7258
16.3475,528,1.7032
16.3517,509,1.6419
16.3560,514,1.6581
16.3602,548,1.7677
16.3644,566,1.8258
16.3687,547,1.7645
16.3731,533,1.7194
16.3775,552,1.7806
16.3820,579,1.8677
16.3864,582,1.8774
16.3913,556,1.7935
16.3956,555,1.7903
16.3999,587,1.8935
16.4041,599,1.9323
16.4084,578,1.8645
16.4127,558,1.8000
16.4170,563,1.8161
16.4212,585,1.8871
16.4254,589,1.9000
16.4296,555,1.7903
16.4338,532,1.7161
16.4381,542,1.7484
16.4423,552,1.7806
16.4465,539,1.7387
16.4507,501,1.6161
16.4550,480,1.5484
16.4594,497,1.6032
16.4637,506,1.6323
16.4681,482,1.5548
16.4729,452,1.4581
16.4772,457,1.4742
16.4815,480,1.5484
16.4859,482,1.5548
16.4903,454,1.4645
16.4946,441,1.4226
16.4989,464,1.4968
16.5032,484,1.5613
16.5074,474,1.5290
16.5118,453,1.4613
16.5161,454,1.4645
16.5204,484,1.5613
16.5247,496,1.6000
16.5289,476,1.5355
16.5332,461,1.4871
16.5374,475,1.5323
16.5417,500,1.6129
16.5459,506,1.6323
16.5501,482,1.5548
16.5545,470,1.5161
16.5587,493,1.5903
16.5629,510,1.6452
16.5672,504,1.6258
16.5714,479,1.5452
16.5756,474,1.5290
16.5804,504,1.6258
16.5847,517,1.6677
16.5889,495,1.5968
16.5933,476,1.5355
16.5976,486,1.5677
16.6019,507,1.6355
16.6063,508,1.6387
16.6106,478,1.5419
16.6149,468,1.5097
16.6192,493,1.5903
16.6236,511,1.6484
16.6279,497,1.6032
16.6325,471,1.5194
16.6369,472,1.5226
16.6412,497,1.6032
16.6456,503,1.6226
16.6499,475,1.5323
16.6543,461,1.4871
16.6586,481,1.5516
16.6630,501,1.6161
16.6673,494,1.5935
16.6716,470,1.5161
16.6759,465,1.5000
16.6803,493,1.5903
16.6846,504,1.6258
16.6890,482,1.5548
16.6934,463,1.4935
16.6981,480,1.5484
16.7024,501,1.6161
16.7067,501,1.6161
16.7110,474,1.5290
16.7153,466,1.5032
16.7196,492,1.5871
16.7239,509,1.6419
16.7282,495,1.5968
16.7329,472,1.5226
16.7373,478,1.5419
16.7416,503,1.6226
16.7459,508,1.6387
16.7502,483,1.5581
16.7546,471,1.5194
16.7595,495,1.5968
16.7638,510,1.6452
16.7681,496,1.6000
16.7723,476,1.5355
16.7766,481,1.5516
16.7809,513,1.6548
16.7852,526,1.6968
16.7895,504,1.6258
16.7938,487,1.5710
16.7980,506,1.6323
16.8023,537,1.7323
16.8066,547,1.7645
16.8109,529,1.7065
16.8152,518,1.6710
16.8194,534,1.7226
16.8237,543,1.7516
16.8281,524,1.6903
16.8324,492,1.5871
16.8367,484,1.5613
16.8415,505,1.6290
16.8458,507,1.6355
16.8500,480,1.5484
16.8543,467,1.5065
16.8586,488,1.5742
16.8629,507,1.6355
16.8672,503,1.6226
16.8715,477,1.5387
16.8758,470,1.5161
16.8800,493,1.5903
16.8843,502,1.6194
16.8886,475,1.5323
16.8930,445,1.4355
16.8974,444,1.4323
16.9017,471,1.5194
16.9061,507,1.6355
16.9104,544,1.7548
16.9146,616,1.9871
16.9188,752,2.4258
16.9233,930,3.0000
16.9276,1001,3.2290
16.9318,1001,3.2290
16.9361,1000,3.2258
16.9404,1000,3.2258
16.9446,944,3.0452
16.9489,753,2.4290
16.9531,578,1.8645
16.9573,472,1.5226
16.9615,446,1.4387
16.9658,442,1.4258
16.9700,420,1.3548
16.9742,410,1.3226
16.9784,433,1.3968
16.9827,456,1.4710
16.9869,452,1.4581
16.9912,421,1.3581
16.9954,409,1.3194
16.9996,435,1.4032
17.0039,454,1.4645
17.0081,442,1.4258
17.0124,420,1.3548
17.0166,419,1.3516
17.0208,448,1.4452
17.0255,464,1.4968
17.0297,444,1.4323
17.0341,427,1.3774
17.0384,447,1.4419
17.0426,471,1.5194
17.0469,471,1.5194
17.0512,446,1.4387
17.0554,439,1.4161
17.0596,464,1.4968
17.0638,485,1.5645
17.0680,478,1.5419
17.0723,458,1.4774
17.0765,458,1.4774
17.0807,488,1.5742
17.0849,505,1.6290
17.0892,488,1.5742
17.0934,473,1.5258
17.0977,484,1.5613
17.1019,512,1.6516
17.1062,522,1.6839
17.1104,500,1.6129
17.1147,491,1.5839
17.1191,517,1.6677
17.1234,544,1.7548
17.1276,546,1.7613
17.1319,524,1.6903
17.1361,525,1.6935
17.1406,559,1.8032
17.1448,577,1.8613
17.1491,560,1.8065
17.1533,543,1.7516
17.1575,553,1.7839
17.1617,582,1.8774
17.1659,591,1.9065
17.1701,565,1.8226
17.1744,547,1.7645
17.1786,564,1.8194
17.1829,582,1.8774
17.1871,578,1.8645
17.1914,546,1.7613
17.1956,527,1.7000
17.1999,540,1.7419
17.2041,544,1.7548
17.2083,524,1.6903
17.2125,491,1.5839
17.2168,479,1.5452
17.2210,494,1.5935
17.2252,497,1.6032
17.2296,467,1.5065
17.2338,441,1.4226
17.2381,450,1.4516
17.2424,469,1.5129
17.2466,470,1.5161
17.2508,443,1.4290
17.2551,429,1.3839
17.2593,451,1.4548
17.2636,470,1.5161
17.2678,465,1.5000
17.2720,441,1.4226
17.2763,436,1.4065
17.2805,464,1.4968
17.2847,480,1.5484
17.2890,464,1.4968
17.2932,445,1.4355
17.2975,451,1.4548
17.3017,479,1.5452
17.3059,489,1.5774
17.3101,465,1.5000
17.3144,450,1.4516
17.3186,465,1.5000
17.3229,488,1.5742
17.3271,491,1.5839
17.3317,464,1.4968
17.3359,453,1.4613
17.3402,476,1.5355
17.3445,490,1.5806
17.3487,475,1.5323
17.3529,455,1.4677
17.3572,455,1.4677
17.3614,481,1.5516
17.3657,492,1.5871
17.3700,469,1.5129
17.3744,447,1.4419
17.3789,460,1.4839
17.3832,478,1.5419
17.3876,474,1.5290
17.3924,450,1.4516
17.3973,445,1.4355
17.4016,474,1.5290
17.4059,482,1.5548
17.4101,456,1.4710
17.4144,438,1.4129
17.4201,463,1.4935
17.4245,479,1.5452
17.4288,467,1.5065
17.4331,445,1.4355
17.4374,446,1.4387
17.4418,472,1.5226
17.4461,481,1.5516
17.4505,455,1.4677
17.4548,440,1.4194
17.4591,458,1.4774
17.4634,475,1.5323
17.4676,472,1.5226
17.4719,446,1.4387
17.4761,439,1.4161
17.4805,465,1.5000
17.4848,483,1.5581
17.4898,462,1.4903
17.4941,442,1.4258
17.4984,452,1.4581
17.5027,475,1.5323
17.5070,480,1.5484
17.5113,453,1.4613
17.5162,444,1.4323
17.5205,473,1.5258
17.5247,490,1.5806
17.5289,475,1.5323
17.5331,450,1.4516
17.5374,451,1.4548
17.5417,481,1.5516
17.5459,493,1.5903
17.5501,471,1.5194
17.5543,456,1.4710
17.5586,471,1.5194
17.5628,500,1.6129
17.5671,506,1.6323
17.5713,478,1.5419
17.5756,471,1.5194
17.5799,503,1.6226
17.5842,533,1.7194
17.5885,531,1.7129
17.5929,502,1.6194
17.5972,490,1.5806
17.6015,512,1.6516
17.6058,515,1.6613
17.6101,483,1.5581
17.6144,460,1.4839
17.6187,467,1.5065
17.6230,488,1.5742
17.6273,490,1.5806
17.6316,463,1.4935
17.6361,453,1.4613
17.6404,479,1.5452
17.6447,496,1.6000
17.6489,482,1.5548
17.6532,458,1.4774
17.6574,453,1.4613
17.6617,479,1.5452
17.6659,482,1.5548
17.6701,451,1.4548
17.6743,430,1.3871
17.6785,454,1.4645
17.6828,525,1.6935
17.6871,602,1.9419
17.6913,671,2.1645
17.6955,784,2.5290
17.6998,931,3.0032
17.7046,1000,3.2258
17.7089,1000,3.2258
17.7132,995,3.2097
17.7175,905,2.9194
17.7217,784,2.5290
17.7260,672,2.1677
17.7303,557,1.7968
17.7345,458,1.4774
17.7387,423,1.3645
17.7430,437,1.4097
17.7473,443,1.4290
17.7515,421,1.3581
17.7557,418,1.3484
17.7599,444,1.4323
17.7642,467,1.5065
17.7685,464,1.4968
17.7727,441,1.4226
17.7769,436,1.4065
17.7811,466,1.5032
17.7853,482,1.5548
17.7896,467,1.5065
17.7939,452,1.4581
17.7981,459,1.4806
17.8028,487,1.5710
17.8071,495,1.5968
17.8114,473,1.5258
17.8157,464,1.4968
17.8200,488,1.5742
17.8244,511,1.6484
17.8288,506,1.6323
17.8331,483,1.5581
17.8374,483,1.5581
17.8417,516,1.6645
17.8460,533,1.7194
17.8504,514,1.6581
17.8547,500,1.6129
17.8590,517,1.6677
17.8634,543,1.7516
17.8679,548,1.7677
17.8723,526,1.6968
17.8766,524,1.6903
17.8810,557,1.7968
17.8853,576,1.8581
17.8896,564,1.8194
17.8940,552,1.7806
17.8983,564,1.8194
17.9026,600,1.9355
17.9069,616,1.9871
17.9112,593,1.9129
17.9155,584,1.8839
17.9198,609,1.9645
17.9240,636,2.0516
17.9284,640,2.0645
17.9327,618,1.9935
17.9374,616,1.9871
17.9421,648,2.0903
17.9465,661,2.1323
17.9509,640,2.0645
17.9554,625,2.0161
17.9598,642,2.0710
17.9643,658,2.1226
17.9687,647,2.0871
17.9732,613,1.9774
17.9776,601,1.9387
17.9821,619,1.9968
17.9865,620,2.0000
17.9909,584,1.8839
17.9954,560,1.8065
17.9999,571,1.8419
18.0044,583,1.8806
18.0087,572,1.8452
18.0131,543,1.7516
18.0175,537,1.7323
18.0219,566,1.8258
18.0264,579,1.8677
18.0308,555,1.7903
18.0352,540,1.7419
18.0396,559,1.8032
18.0440,582,1.8774
18.0483,583,1.8806
18.0527,559,1.8032
18.0571,553,1.7839
18.0615,584,1.8839
18.0659,604,1.9484
18.0702,587,1.8935
18.0746,571,1.8419
18.0790,584,1.8839
18.0834,608,1.9613
18.0878,615,1.9839
18.0922,590,1.9032
18.0966,580,1.8710
18.1010,607,1.9581
18.1054,625,2.0161
18.1098,612,1.9742
18.1142,593,1.9129
18.1186,595,1.9194
18.1229,621,2.0032
18.1273,628,2.0258
18.1317,600,1.9355
18.1360,586,1.8903
18.1404,607,1.9581
18.1448,626,2.0194
18.1492,618,1.9935
18.1536,592,1.9097
18.1580,592,1.9097
18.1624,619,1.9968
18.1667,628,2.0258
18.1711,601,1.9387
18.1755,585,1.8871
18.1799,601,1.9387
18.1843,621,2.0032
18.1887,617,1.9903
18.1933,593,1.9129
18.1977,589,1.9000
18.2020,618,1.9935
18.2064,629,2.0290
18.2108,607,1.9581
18.2152,588,1.8968
18.2195,602,1.9419
18.2239,626,2.0194
18.2283,629,2.0290
18.2326,602,1.9419
18.2370,593,1.9129
18.2414,621,2.0032
18.2458,635,2.0484
18.2502,616,1.9871
18.2549,594,1.9161
18.2593,603,1.9452
18.2637,627,2.0226
18.2682,630,2.0323
18.2725,602,1.9419
18.2769,593,1.9129
18.2814,619,1.9968
18.2857,636,2.0516
18.2902,617,1.9903
18.2952,595,1.9194
18.3001,612,1.9742
18.3045,634,2.0452
18.3089,630,2.0323
18.3133,602,1.9419
18.3177,597,1.9258
18.3221,626,2.0194
18.3265,643,2.0742
18.3309,622,2.0065
18.3352,608,1.9613
18.3396,624,2.0129
18.3440,649,2.0935
18.3484,652,2.1032
18.3528,631,2.0355
18.3576,631,2.0355
18.3620,667,2.1516
18.3663,686,2.2129
18.3707,657,2.1194
18.3751,629,2.0290
18.3795,630,2.0323
18.3839,645,2.0806
18.3883,640,2.0645
18.3926,603,1.9452
18.3970,585,1.8871
18.4014,607,1.9581
18.4058,621,2.0032
18.4102,603,1.9452
18.4147,583,1.8806
18.4193,590,1.9032
18.4237,611,1.9710
18.4281,615,1.9839
18.4325,582,1.8774
18.4369,564,1.8194
18.4412,577,1.8613
18.4456,585,1.8871
18.4500,563,1.8161
18.4544,546,1.7613
18.4589,583,1.8806
18.4633,677,2.1839
18.4677,781,2.5194
18.4721,886,2.8581
18.4765,999,3.2226
18.4811,1001,3.2290
18.4854,1005,3.2419
18.4898,1001,3.2290
18.4942,1001,3.2290
18.4986,1001,3.2290
18.5030,909,2.9323
18.5074,720,2.3226
18.5118,560,1.8065
18.5162,490,1.5806
18.5206,501,1.6161
18.5251,525,1.6935
18.5295,523,1.6871
18.5340,499,1.6097
18.5384,495,1.5968
18.5427,520,1.6774
18.5477,527,1.7000
18.5520,500,1.6129
18.5564,483,1.5581
18.5607,501,1.6161
18.5651,520,1.6774
18.5695,512,1.6516
18.5738,489,1.5774
18.5782,484,1.5613
18.5825,513,1.6548
18.5869,524,1.6903
18.5913,502,1.6194
18.5956,486,1.5677
18.6000,499,1.6097
18.6043,522,1.6839
18.6087,524,1.6903
18.6130,496,1.6000
18.6173,487,1.5710
18.6217,512,1.6516
18.6260,529,1.7065
18.6304,515,1.6613
18.6348,495,1.5968
18.6391,497,1.6032
18.6435,527,1.7000
18.6478,536,1.7290
18.6527,511,1.6484
18.6571,503,1.6226
18.6614,528,1.7032
18.6657,549,1.7710
18.6701,538,1.7355
18.6744,519,1.6742
18.6788,523,1.6871
18.6831,555,1.7903
18.6875,568,1.8323
18.6918,547,1.7645
18.6962,537,1.7323
18.7005,556,1.7935
18.7049,581,1.8742
18.7093,578,1.8645
18.7136,549,1.7710
18.7180,544,1.7548
18.7223,571,1.8419
18.7272,582,1.8774
18.7316,556,1.7935
18.7359,532,1.7161
18.7403,542,1.7484
18.7447,557,1.7968
18.7492,544,1.7548
18.7536,507,1.6355
18.7579,487,1.5710
18.7623,504,1.6258
18.7667,506,1.6323
18.7710,474,1.5290
18.7754,443,1.4290
18.7797,440,1.4194
18.7841,457,1.4742
18.7887,454,1.4645
18.7931,422,1.3613
18.7974,404,1.3032
18.8018,427,1.3774
18.8062,441,1.4226
18.8105,427,1.3774
18.8148,406,1.3097
18.8191,408,1.3161
18.8234,433,1.3968
18.8276,441,1.4226
18.8319,414,1.3355
18.8363,400,1.2903
18.8405,418,1.3484
18.8448,441,1.4226
18.8492,442,1.4258
18.8534,418,1.3484
18.8578,408,1.3161
18.8620,433,1.3968
18.8663,450,1.4516
18.8707,438,1.4129
18.8750,416,1.3419
18.8793,419,1.3516
18.8837,446,1.4387
18.8880,453,1.4613
18.8923,425,1.3710
18.8966,408,1.3161
18.9009,426,1.3742
18.9052,443,1.4290
18.9096,439,1.4161
18.9139,412,1.3290
18.9195,411,1.3258
18.9238,436,1.4065
18.9281,443,1.4290
18.9324,415,1.3387
18.9367,398,1.2839
18.9410,413,1.3323
18.9453,430,1.3871
18.9496,425,1.3710
18.9539,397,1.2806
18.9583,389,1.2548
18.9625,415,1.3387
18.9668,428,1.3806
18.9711,408,1.3161
18.9754,388,1.2516
18.9798,393,1.2677
18.9840,416,1.3419
18.9883,425,1.3710
18.9925,398,1.2839
18.9969,381,1.2290
19.0015,402,1.2968
19.0057,421,1.3581
19.0100,415,1.3387
19.0142,389,1.2548
19.0185,385,1.2419
19.0227,413,1.3323
19.0269,425,1.3710
19.0312,406,1.3097
19.0354,386,1.2452
19.0397,390,1.2581
19.0440,417,1.3452
19.0482,426,1.3742
19.0525,400,1.2903
19.0568,385,1.2419
19.0610,403,1.3000
19.0654,424,1.3677
19.0696,422,1.3613
19.0738,396,1.2774
19.0780,388,1.2516
19.0823,416,1.3419
19.0865,431,1.3903
19.0907,415,1.3387
19.0953,391,1.2613
19.0995,392,1.2645
19.1037,419,1.3516
19.1080,429,1.3839
19.1122,407,1.3129
19.1164,392,1.2645
19.1207,410,1.3226
19.1249,437,1.4097
19.1291,446,1.4387
19.1333,421,1.3581
19.1376,408,1.3161
19.1418,433,1.3968
19.1461,457,1.4742
19.1504,455,1.4677
19.1547,442,1.4258
19.1589,445,1.4355
19.1632,472,1.5226
19.1674,476,1.5355
19.1716,449,1.4484
19.1758,427,1.3774
19.1801,427,1.3774
19.1843,443,1.4290
19.1886,441,1.4226
19.1928,411,1.3258
19.1973,396,1.2774
19.2016,420,1.3548
19.2058,441,1.4226
19.2101,435,1.4032
19.2144,410,1.3226
19.2195,408,1.3161
19.2238,437,1.4097
19.2280,442,1.4258
19.2322,413,1.3323
19.2365,389,1.2548
19.2407,393,1.2677
19.2450,409,1.3194
19.2493,417,1.3452
19.2535,425,1.3710
19.2577,483,1.5581
19.2619,596,1.9226
19.2662,741,2.3903
19.2704,883,2.8484
19.2747,989,3.1903
19.2790,1000,3.2258
19.2833,1001,3.2290
19.2875,994,3.2065
19.2917,875,2.8226
19.2959,679,2.1903
19.3001,533,1.7194
19.3044,452,1.4581
19.3087,409,1.3194
19.3129,370,1.1935
19.3171,359,1.1581
19.3214,385,1.2419
19.3257,412,1.3290
19.3299,413,1.3323
19.3341,388,1.2516
19.3384,380,1.2258
19.3426,405,1.3065
19.3469,422,1.3613
19.3516,403,1.3000
19.3559,389,1.2548
19.3610,405,1.3065
19.3654,429,1.3839
19.3697,433,1.3968
19.3741,411,1.3258
19.3785,405,1.3065
19.3829,435,1.4032
19.3872,454,1.4645
19.3915,440,1.4194
19.3958,423,1.3645
19.4000,430,1.3871
19.4043,459,1.4806
19.4086,470,1.5161
19.4128,447,1.4419
19.4170,438,1.4129
19.4213,458,1.4774
19.4255,483,1.5581
19.4297,485,1.5645
19.4340,462,1.4903
19.4382,456,1.4710
19.4428,490,1.5806
19.4471,510,1.6452
19.4514,497,1.6032
19.4556,481,1.5516
19.4599,490,1.5806
19.4641,524,1.6903
19.4684,538,1.7355
19.4728,520,1.6774
19.4771,510,1.6452
19.4814,536,1.7290
19.4857,562,1.8129
19.4901,566,1.8258
19.4944,544,1.7548
19.4987,542,1.7484
19.5030,571,1.8419
19.5073,591,1.9065
19.5117,577,1.8613
19.5160,558,1.8000
19.5204,565,1.8226
19.5248,590,1.9032
19.5292,592,1.9097
19.5335,559,1.8032
19.5379,542,1.7484
19.5422,558,1.8000
19.5465,567,1.8290
19.5509,544,1.7548
19.5552,509,1.6419
19.5595,495,1.5968
19.5639,513,1.6548
19.5682,516,1.6645
19.5725,484,1.5613
19.5768,458,1.4774
19.5811,466,1.5032
19.5855,481,1.5516
19.5904,476,1.5355
19.5947,447,1.4419
19.5990,439,1.4161
19.6032,467,1.5065
19.6075,482,1.5548
19.6118,466,1.5032
19.6161,448,1.4452
19.6204,454,1.4645
19.6247,480,1.5484
19.6290,490,1.5806
19.6333,467,1.5065
19.6376,457,1.4742
19.6418,476,1.5355
19.6461,497,1.6032
19.6505,493,1.5903
19.6548,469,1.5129
19.6592,465,1.5000
19.6635,494,1.5935
19.6678,511,1.6484
19.6722,490,1.5806
19.6765,470,1.5161
19.6807,480,1.5484
19.6850,504,1.6258
19.6893,509,1.6419
19.6936,482,1.5548
19.6979,468,1.5097
19.7021,491,1.5839
19.7064,510,1.6452
19.7107,505,1.6290
19.7150,477,1.5387
19.7193,469,1.5129
19.7237,494,1.5935
19.7280,507,1.6355
19.7323,484,1.5613
19.7366,464,1.4968
19.7410,476,1.5355
19.7454,500,1.6129
19.7497,503,1.6226
19.7540,475,1.5323
19.7583,462,1.4903
19.7627,487,1.5710
19.7670,504,1.6258
19.7712,491,1.5839
19.7756,467,1.5065
19.7799,465,1.5000
19.7842,494,1.5935
19.7885,505,1.6290
19.7928,480,1.5484
19.7972,464,1.4968
19.8015,480,1.5484
19.8058,502,1.6194
19.8101,501,1.6161
19.8150,470,1.5161
19.8197,462,1.4903
19.8240,493,1.5903
19.8283,505,1.6290
19.8326,485,1.5645
19.8369,467,1.5065
19.8412,475,1.5323
19.8458,501,1.6161
19.8501,503,1.6226
19.8544,475,1.5323
19.8587,464,1.4968
19.8630,489,1.5774
19.8673,508,1.6387
19.8715,497,1.6032
19.8758,474,1.5290
19.8800,473,1.5258
19.8842,502,1.6194
19.8884,511,1.6484
19.8927,489,1.5774
19.8969,472,1.5226
19.9012,486,1.5677
19.9054,515,1.6613
19.9096,523,1.6871
19.9139,497,1.6032
19.9181,483,1.5581
19.9224,509,1.6419
19.9267,537,1.7323
19.9310,541,1.7452
19.9352,526,1.6968
19.9395,518,1.6710
19.9437,539,1.7387
19.9479,543,1.7516
19.9522,518,1.6710
19.9565,486,1.5677
19.9607,485,1.5645
19.9650,505,1.6290
19.9692,508,1.6387
19.9734,481,1.5516
19.9777,465,1.5000
19.9819,483,1.5581
19.9862,504,1.6258
19.9904,505,1.6290
19.9948,476,1.5355
19.9991,467,1.5065
20.0033,489,1.5774
20.0210,453,1.4613
20.0254,485,1.5645
20.0297,526,1.6968
20.0340,566,1.8258
20.0383,639,2.0613
20.0425,782,2.5226
20.0468,930,3.0000
20.0510,998,3.2194
20.0553,1000,3.2258
20.0595,999,3.2226
20.0637,980,3.1613
20.0680,864,2.7871
20.0722,714,2.3032
20.0764,590,1.9032
20.0806,508,1.6387
20.0848,469,1.5129
20.0891,444,1.4323
20.0933,412,1.3290
20.0976,400,1.2903
20.1018,422,1.3613
20.1066,455,1.4677
20.1109,462,1.4903
20.1151,437,1.4097
20.1196,430,1.3871
20.1239,458,1.4774
20.1282,475,1.5323
20.1324,456,1.4710
20.1366,437,1.4097
20.1409,444,1.4323
20.1456,475,1.5323
20.1499,482,1.5548
20.1542,456,1.4710
20.1584,445,1.4355
20.1627,465,1.5000
20.1669,487,1.5710
20.1712,484,1.5613
20.1754,462,1.4903
20.1796,459,1.4806
20.1841,492,1.5871
20.1883,509,1.6419
20.1926,492,1.5871
20.1968,474,1.5290
20.2010,481,1.5516
20.2052,510,1.6452
20.2095,524,1.6903
20.2137,502,1.6194
20.2180,490,1.5806
20.2222,508,1.6387
20.2265,534,1.7226
20.2308,540,1.7419
20.2350,518,1.6710
20.2392,513,1.6548
20.2434,544,1.7548
20.2477,566,1.8258
20.2520,560,1.8065
20.2562,542,1.7484
20.2604,547,1.7645
20.2646,580,1.8710
20.2689,596,1.9226
20.2732,578,1.8645
20.2774,563,1.8161
20.2817,576,1.8581
20.2861,605,1.9516
20.2904,609,1.9645
20.2947,583,1.8806
20.2989,574,1.8516
20.3032,595,1.9194
20.3074,610,1.9677
20.3116,601,1.9387
20.3159,569,1.8355
20.3204,555,1.7903
20.3247,576,1.8581
20.3289,576,1.8581
20.3332,542,1.7484
20.3374,512,1.6516
20.3416,512,1.6516
20.3458,529,1.7065
20.3500,527,1.7000
20.3543,493,1.5903
20.3585,470,1.5161
20.3628,485,1.5645
20.3672,502,1.6194
20.3721,489,1.5774
20.3765,466,1.5032
20.3808,468,1.5097
20.3852,497,1.6032
20.3896,508,1.6387
20.3940,483,1.5581
20.3984,467,1.5065
20.4027,488,1.5742
20.4070,511,1.6484
20.4113,510,1.6452
20.4156,484,1.5613
20.4199,477,1.5387
20.4242,506,1.6323
20.4284,521,1.6806
20.4327,504,1.6258
20.4370,486,1.5677
20.4413,492,1.5871
20.4456,518,1.6710
20.4499,528,1.7032
20.4542,501,1.6161
20.4585,485,1.5645
20.4628,505,1.6290
20.4670,525,1.6935
20.4713,522,1.6839
20.4756,494,1.5935
20.4798,485,1.5645
20.4840,511,1.6484
20.4882,526,1.6968
20.4924,509,1.6419
20.4967,485,1.5645
20.5009,484,1.5613
20.5051,512,1.6516
20.5093,522,1.6839
20.5135,497,1.6032
20.5178,475,1.5323
20.5221,486,1.5677
20.5263,508,1.6387
20.5305,511,1.6484
20.5348,480,1.5484
20.5391,468,1.5097
20.5433,491,1.5839
20.5475,510,1.6452
20.5518,501,1.6161
20.5561,475,1.5323
20.5604,469,1.5129
20.5646,496,1.6000
20.5688,510,1.6452
20.5731,490,1.5806
20.5773,470,1.5161
20.5815,476,1.5355
20.5858,502,1.6194
20.5901,507,1.6355
20.5945,479,1.5452
20.5989,464,1.4968
20.6032,486,1.5677
20.6075,504,1.6258
20.6118,499,1.6097
20.6161,472,1.5226
20.6204,467,1.5065
20.6247,495,1.5968
20.6290,508,1.6387
20.6335,486,1.5677
20.6378,466,1.5032
20.6421,477,1.5387
20.6463,501,1.6161
20.6505,504,1.6258
20.6548,477,1.5387
20.6591,464,1.4968
20.6633,487,1.5710
20.6676,507,1.6355
20.6718,498,1.6065
20.6761,471,1.5194
20.6804,468,1.5097
20.6847,499,1.6097
20.6890,520,1.6774
20.6933,505,1.6290
20.6977,485,1.5645
20.7021,496,1.6000
20.7065,524,1.6903
20.7108,535,1.7258
20.7153,517,1.6677
20.7201,513,1.6548
20.7244,537,1.7323
20.7287,544,1.7548
20.7330,519,1.6742
20.7373,491,1.5839
20.7416,487,1.5710
20.7459,501,1.6161
20.7501,502,1.6194
20.7544,473,1.5258
20.7587,455,1.4677
20.7630,471,1.5194
20.7673,493,1.5903
20.7715,492,1.5871
20.7758,464,1.4968
20.7800,456,1.4710
20.7842,481,1.5516
20.7884,492,1.5871
20.7927,471,1.5194
20.7971,438,1.4129
20.8013,428,1.3806
20.8056,446,1.4387
20.8098,458,1.4774
20.8140,461,1.4871
20.8183,507,1.6355
20.8226,606,1.9548
20.8269,748,2.4129
20.8312,900,2.9032
20.8355,996,3.2129
20.8397,1002,3.2323
20.8440,1003,3.2355
20.8483,1000,3.2258
20.8526,983,3.1710
20.8569,796,2.5677
20.8612,607,1.9581
20.8655,500,1.6129
20.8698,440,1.4194
20.8741,396,1.2774
20.8787,379,1.2226
20.8830,400,1.2903
20.8873,427,1.3774
20.8916,428,1.3806
20.8960,397,1.2806
20.9003,387,1.2484
20.9046,414,1.3355
20.9089,430,1.3871
20.9132,414,1.3355
20.9178,392,1.2645
20.9221,399,1.2871
20.9264,428,1.3806
20.9307,436,1.4065
20.9350,409,1.3194
20.9392,397,1.2806
20.9435,420,1.3548
20.9478,441,1.4226
20.9521,437,1.4097
20.9564,414,1.3355
20.9607,410,1.3226
20.9650,442,1.4258
20.9693,459,1.4806
20.9736,442,1.4258
20.9779,425,1.3710
20.9822,435,1.4032
20.9865,462,1.4903
20.9908,472,1.5226
20.9950,448,1.4452
20.9993,437,1.4097
21.0036,460,1.4839
21.0079,483,1.5581
21.0122,483,1.5581
21.0170,460,1.4839
21.0220,471,1.5194
21.0263,502,1.6194
21.0306,514,1.6581
21.0349,491,1.5839
21.0391,483,1.5581
21.0434,507,1.6355
21.0476,533,1.7194
21.0518,535,1.7258
21.0561,514,1.6581
21.0604,510,1.6452
21.0646,540,1.7419
21.0689,556,1.7935
21.0731,543,1.7516
21.0774,523,1.6871
21.0816,524,1.6903
21.0858,561,1.8097
21.0901,561,1.8097
21.0943,533,1.7194
21.0985,509,1.6419
21.1027,513,1.6548
21.1070,527,1.7000
21.1114,519,1.6742
21.1157,479,1.5452
21.1200,456,1.4710
21.1243,468,1.5097
21.1286,475,1.5323
21.1329,452,1.4581
21.1372,419,1.3516
21.1415,410,1.3226
21.1458,433,1.3968
21.1502,439,1.4161
21.1551,408,1.3161
21.1594,393,1.2677
21.1637,412,1.3290
21.1681,429,1.3839
21.1724,423,1.3645
21.1768,397,1.2806
21.1811,393,1.2677
21.1855,424,1.3677
21.1898,440,1.4194
21.1941,422,1.3613
21.1984,406,1.3097
21.2026,417,1.3452
21.2068,444,1.4323
21.2111,451,1.4548
21.2154,426,1.3742
21.2200,414,1.3355
21.2243,438,1.4129
21.2286,456,1.4710
21.2329,448,1.4452
21.2371,426,1.3742
21.2413,424,1.3677
21.2455,452,1.4581
21.2497,465,1.5000
21.2540,442,1.4258
21.2583,423,1.3645
21.2625,430,1.3871
21.2667,456,1.4710
21.2716,460,1.4839
21.2758,432,1.3935
21.2800,420,1.3548
21.2843,444,1.4323
21.2886,461,1.4871
21.2929,449,1.4484
21.2973,422,1.3613
21.3016,420,1.3548
21.3059,448,1.4452
21.3103,457,1.4742
21.3147,432,1.3935
21.3192,414,1.3355
21.3237,431,1.3903
21.3289,455,1.4677
21.3333,440,1.4194
21.3378,416,1.3419
21.3422,421,1.3581
21.3467,447,1.4419
21.3517,452,1.4581
21.3561,423,1.3645
21.3605,415,1.3387
21.3650,443,1.4290
21.3703,459,1.4806
21.3748,433,1.3968
21.3793,417,1.3452
21.3838,437,1.4097
21.3882,456,1.4710
21.3927,451,1.4548
21.3971,425,1.3710
21.4015,421,1.3581
21.4059,451,1.4548
21.4103,464,1.4968
21.4148,441,1.4226
21.4192,423,1.3645
21.4236,442,1.4258
21.4280,463,1.4935
21.4324,460,1.4839
21.4368,434,1.4000
21.4412,431,1.3903
21.4456,459,1.4806
21.4499,472,1.5226
21.4543,453,1.4613
21.4587,432,1.3935
21.4631,444,1.4323
21.4675,471,1.5194
21.4721,474,1.5290
21.4769,449,1.4484
21.4813,448,1.4452
21.4857,481,1.5516
21.4901,495,1.5968
21.4944,476,1.5355
21.4988,463,1.4935
21.5032,487,1.5710
21.5076,521,1.6806
21.5120,521,1.6806
21.5163,485,1.5645
21.5207,467,1.5065
21.5251,488,1.5742
21.5295,498,1.6065
21.5346,464,1.4968
21.5390,438,1.4129
21.5434,449,1.4484
21.5477,473,1.5258
21.5526,472,1.5226
21.5570,446,1.4387
21.5614,441,1.4226
21.5658,469,1.5129
21.5701,484,1.5613
21.5746,459,1.4806
21.5790,435,1.4032
21.5834,444,1.4323
21.5878,460,1.4839
21.5922,451,1.4548
21.5965,416,1.3419
21.6009,421,1.3581
21.6052,498,1.6065
21.6096,592,1.9097
21.6139,677,2.1839
21.6183,796,2.5677
21.6227,956,3.0839
21.6276,1000,3.2258
21.6320,1001,3.2290
21.6363,1000,3.2258
21.6421,919,2.9645
21.6464,748,2.4129
21.6508,592,1.9097
21.6552,458,1.4774
21.6596,395,1.2742
21.6639,406,1.3097
21.6683,434,1.4000
21.6727,438,1.4129
21.6771,414,1.3355
21.6816,411,1.3258
21.6859,438,1.4129
21.6904,450,1.4516
21.6948,426,1.3742
21.6992,410,1.3226
21.7036,426,1.3742
21.7080,450,1.4516
21.7124,453,1.4613
21.7168,426,1.3742
21.7212,421,1.3581
21.7256,453,1.4613
21.7300,472,1.5226
21.7344,455,1.4677
21.7388,437,1.4097
21.7432,449,1.4484
21.7477,476,1.5355
21.7520,482,1.5548
21.7565,457,1.4742
21.7609,449,1.4484
21.7652,479,1.5452
21.7696,498,1.6065
21.7740,484,1.5613
21.7790,465,1.5000
21.7834,483,1.5581
21.7878,513,1.6548
21.7922,520,1.6774
21.7966,496,1.6000
21.8016,492,1.5871
21.8060,527,1.7000
21.8104,545,1.7581
21.8148,528,1.7032
21.8191,515,1.6613
21.8235,532,1.7161
21.8279,563,1.8161
21.8323,572,1.8452
21.8367,550,1.7742
21.8411,547,1.7645
21.8455,582,1.8774
21.8499,602,1.9419
21.8543,588,1.8968
21.8587,570,1.8387
21.8633,579,1.8677
21.8677,606,1.9548
21.8721,615,1.9839
21.8764,584,1.8839
21.8808,569,1.8355
21.8852,591,1.9065
21.8896,601,1.9387
21.8940,579,1.8677
21.8984,544,1.7548
21.9028,536,1.7290
21.9073,551,1.7774
21.9117,545,1.7581
21.9161,507,1.6355
21.9213,485,1.5645
21.9260,503,1.6226
21.9308,511,1.6484
21.9352,481,1.5516
21.9396,456,1.4710
21.9439,469,1.5129
21.9483,490,1.5806
21.9528,489,1.5774
21.9572,462,1.4903
21.9616,458,1.4774
21.9662,487,1.5710
21.9706,500,1.6129
21.9750,479,1.5452
21.9794,464,1.4968
21.9839,482,1.5548
21.9883,507,1.6355
21.9926,509,1.6419
21.9970,481,1.5516
22.0014,476,1.5355
22.0057,505,1.6290
22.0101,522,1.6839
22.0146,503,1.6226
22.0189,483,1.5581
22.0232,492,1.5871
22.0276,520,1.6774
22.0319,526,1.6968
22.0363,499,1.6097
22.0407,487,1.5710
22.0450,509,1.6419
22.0494,528,1.7032
22.0537,517,1.6677
22.0581,493,1.5903
22.0625,493,1.5903
22.0669,523,1.6871
22.0713,532,1.7161
22.0756,505,1.6290
22.0800,486,1.5677
22.0844,503,1.6226
22.0892,526,1.6968
22.0936,518,1.6710
22.0979,493,1.5903
22.1023,489,1.5774
22.1066,517,1.6677
22.1110,527,1.7000
22.1153,503,1.6226
22.1197,483,1.5581
22.1240,497,1.6032
22.1284,519,1.6742
22.1327,518,1.6710
22.1371,491,1.5839
22.1415,482,1.5548
22.1458,508,1.6387
22.1508,525,1.6935
22.1556,500,1.6129
22.1599,487,1.5710
22.1643,505,1.6290
22.1686,526,1.6968
22.1730,526,1.6968
22.1773,497,1.6032
22.1817,491,1.5839
22.1861,519,1.6742
22.1904,535,1.7258
22.1948,516,1.6645
22.1992,495,1.5968
22.2035,502,1.6194
22.2079,526,1.6968
22.2122,532,1.7161
22.2166,508,1.6387
22.2209,496,1.6000
22.2253,520,1.6774
22.2296,540,1.7419
22.2340,527,1.7000
22.2384,502,1.6194
22.2427,501,1.6161
22.2471,529,1.7065
22.2514,540,1.7419
22.2560,512,1.6516
22.2604,500,1.6129
22.2648,523,1.6871
22.2691,550,1.7742
22.2738,548,1.7677
22.2781,524,1.6903
22.2825,521,1.6806
22.2869,553,1.7839
22.2912,575,1.8548
22.2955,560,1.8065
22.2999,550,1.7742
22.3041,562,1.8129
22.3083,578,1.8645
22.3126,574,1.8516
22.3169,540,1.7419
22.3212,521,1.6806
22.3255,537,1.7323
22.3298,547,1.7645
22.3340,531,1.7129
22.3383,506,1.6323
22.3426,503,1.6226
22.3468,533,1.7194
22.3510,547,1.7645
22.3555,526,1.6968
22.3598,508,1.6387
22.3641,521,1.6806
22.3683,541,1.7452
22.3725,544,1.7548
22.3767,509,1.6419
22.3810,485,1.5645
22.3853,498,1.6065
22.3895,518,1.6710
22.3937,536,1.7290
22.3980,565,1.8226
22.4024,643,2.0742
22.4067,786,2.5355
22.4110,937,3.0226
22.4153,998,3.2194
22.4196,1000,3.2258
22.4240,1000,3.2258
22.4283,1001,3.2290
22.4326,979,3.1581
22.4374,791,2.5516
22.4418,633,2.0419
22.4461,549,1.7710
22.4504,498,1.6065
22.4548,459,1.4806
22.4591,438,1.4129
22.4634,451,1.4548
22.4678,487,1.5710
22.4721,501,1.6161
22.4764,472,1.5226
22.4806,456,1.4710
22.4850,476,1.5355
22.4892,498,1.6065
22.4934,497,1.6032
22.4977,471,1.5194
22.5019,463,1.4935
22.5062,492,1.5871
22.5104,510,1.6452
22.5146,496,1.6000
22.5210,470,1.5161
22.5253,493,1.5903
22.5295,517,1.6677
22.5337,513,1.6548
22.5380,489,1.5774
22.5423,484,1.5613
22.5466,515,1.6613
22.5509,532,1.7161
22.5553,516,1.6645
22.5596,497,1.6032
22.5639,506,1.6323
22.5682,535,1.7258
22.5724,543,1.7516
22.5767,520,1.6774
22.5813,510,1.6452
22.5856,537,1.7323
22.5899,560,1.8065
22.5942,554,1.7871
22.5985,536,1.7290
22.6035,544,1.7548
22.6078,577,1.8613
22.6120,590,1.9032
22.6163,574,1.8516
22.6205,561,1.8097
22.6247,583,1.8806
22.6290,609,1.9645
22.6332,616,1.9871
22.6375,596,1.9226
22.6417,587,1.8935
22.6459,616,1.9871
22.6502,637,2.0548
22.6544,626,2.0194
22.6587,602,1.9419
22.6629,599,1.9323
22.6671,625,2.0161
22.6714,639,2.0613
22.6757,610,1.9677
22.6800,584,1.8839
22.6843,584,1.8839
22.6893,602,1.9419
22.6936,590,1.9032
22.6978,552,1.7806
22.7021,531,1.7129
22.7064,545,1.7581
22.7107,552,1.7806
22.7150,527,1.7000
22.7192,498,1.6065
22.7235,490,1.5806
22.7278,512,1.6516
22.7324,517,1.6677
22.7367,490,1.5806
22.7409,474,1.5290
22.7452,490,1.5806
22.7494,512,1.6516
22.7537,512,1.6516
22.7579,486,1.5677
22.7622,478,1.5419
22.7664,506,1.6323
22.7706,525,1.6935
22.7749,513,1.6548
22.7791,492,1.5871
22.7833,493,1.5903
22.7876,523,1.6871
22.7919,537,1.7323
22.7961,515,1.6613
22.8003,495,1.5968
22.8047,508,1.6387
22.8090,533,1.7194
22.8134,538,1.7355
22.8178,510,1.6452
22.8222,500,1.6129
22.8265,525,1.6935
22.8308,544,1.7548
22.8352,527,1.7000
22.8395,506,1.6323
22.8437,506,1.6323
22.8480,530,1.7097
22.8523,538,1.7355
22.8566,512,1.6516
22.8609,495,1.5968
22.8652,513,1.6548
22.8695,532,1.7161
22.8738,531,1.7129
22.8781,504,1.6258
22.8823,494,1.5935
22.8865,518,1.6710
22.8908,534,1.7226
22.8951,518,1.6710
22.8993,493,1.5903
22.9035,490,1.5806
22.9077,519,1.6742
22.9121,532,1.7161
22.9164,510,1.6452
22.9206,493,1.5903
22.9249,507,1.6355
22.9291,528,1.7032
22.9333,528,1.7032
22.9381,499,1.6097
22.9425,492,1.5871
22.9468,520,1.6774
22.9512,534,1.7226
22.9556,515,1.6613
22.9599,495,1.5968
22.9643,501,1.6161
22.9686,527,1.7000
22.9729,535,1.7258
22.9772,506,1.6323
22.9815,494,1.5935
22.9858,514,1.6581
22.9900,533,1.7194
22.9943,529,1.7065
22.9986,503,1.6226
23.0029,498,1.6065
23.0072,524,1.6903
23.0114,538,1.7355
23.0156,519,1.6742
23.0199,499,1.6097
23.0241,505,1.6290
23.0284,537,1.7323
23.0331,549,1.7710
23.0373,527,1.7000
23.0416,514,1.6581
23.0458,535,1.7258
23.0500,557,1.7968
23.0542,562,1.8129
23.0585,544,1.7548
23.0632,551,1.7774
23.0675,578,1.8645
23.0718,585,1.8871
23.0761,554,1.7871
23.0804,529,1.7065
23.0850,530,1.7097
23.0893,546,1.7613
23.0936,541,1.7452
23.0986,506,1.6323
23.1029,496,1.6000
23.1072,525,1.6935
23.1115,539,1.7387
23.1158,520,1.6774
23.1202,499,1.6097
23.1245,507,1.6355
23.1288,531,1.7129
23.1332,535,1.7258
23.1375,499,1.6097
23.1418,478,1.5419
23.1462,491,1.5839
23.1505,503,1.6226
23.1548,500,1.6129
23.1594,517,1.6677
23.1638,587,1.8935
23.1681,711,2.2935
23.1724,853,2.7516
23.1767,967,3.1194
23.1810,1000,3.2258
23.1858,1003,3.2355
23.1902,1002,3.2323
23.1945,996,3.2129
23.1989,874,2.8194
23.2032,701,2.2613
23.2075,601,1.9387
23.2118,520,1.6774
23.2162,455,1.4677
23.2205,423,1.3645
23.2248,437,1.4097
23.2292,467,1.5065
23.2336,476,1.5355
23.2379,449,1.4484
23.2423,438,1.4129
23.2465,461,1.4871
23.2508,481,1.5516
23.2550,470,1.5161
23.2593,444,1.4323
23.2640,444,1.4323
23.2683,474,1.5290
23.2726,486,1.5677
23.2768,463,1.4935
23.2811,448,1.4452
23.2854,467,1.5065
23.2897,492,1.5871
23.2940,496,1.6000
23.2987,469,1.5129
23.3030,463,1.4935
23.3072,493,1.5903
23.3114,512,1.6516
23.3156,501,1.6161
23.3198,481,1.5516
23.3241,483,1.5581
23.3283,513,1.6548
23.3325,527,1.7000
23.3370,505,1.6290
23.3413,492,1.5871
23.3456,512,1.6516
23.3499,537,1.7323
23.3542,539,1.7387
23.3585,515,1.6613
23.3629,510,1.6452
23.3673,546,1.7613
23.3716,566,1.8258
23.3759,552,1.7806
23.3805,537,1.7323
23.3848,551,1.7774
23.3891,585,1.8871
23.3934,593,1.9129
23.3977,570,1.8387
23.4019,561,1.8097
23.4062,586,1.8903
23.4104,609,1.9645
23.4147,608,1.9613
23.4191,583,1.8806
23.4234,578,1.8645
23.4277,605,1.9516
23.4319,619,1.9968
23.4361,598,1.9290
23.4403,573,1.8484
23.4446,569,1.8355
23.4489,589,1.9000
23.4531,584,1.8839
23.4573,547,1.7645
23.4616,522,1.6839
23.4659,527,1.7000
23.4702,539,1.7387
23.4744,526,1.6968
23.4787,488,1.5742
23.4830,471,1.5194
23.4873,492,1.5871
23.4917,503,1.6226
23.4960,481,1.5516
23.5004,461,1.4871
23.5047,464,1.4968
23.5090,489,1.5774
23.5134,497,1.6032
23.5177,471,1.5194
23.5220,458,1.4774
23.5263,481,1.5516
23.5306,503,1.6226
23.5349,498,1.6065
23.5392,472,1.5226
23.5434,468,1.5097
23.5477,497,1.6032
23.5520,513,1.6548
23.5564,495,1.5968
23.5606,476,1.5355
23.5655,491,1.5839
23.5698,516,1.6645
23.5741,521,1.6806
23.5783,495,1.5968
23.5825,483,1.5581
23.5868,505,1.6290
23.5911,523,1.6871
23.5953,512,1.6516
23.5996,489,1.5774
23.6038,483,1.5581
23.6080,508,1.6387
23.6123,521,1.6806
23.6165,501,1.6161
23.6207,480,1.5484
23.6249,486,1.5677
23.6292,510,1.6452
23.6335,517,1.6677
23.6379,488,1.5742
23.6422,474,1.5290
23.6465,495,1.5968
23.6508,513,1.6548
23.6552,504,1.6258
23.6595,477,1.5387
23.6638,471,1.5194
23.6681,499,1.6097
23.6725,513,1.6548
23.6768,491,1.5839
23.6810,472,1.5226
23.6853,480,1.5484
23.6896,506,1.6323
23.6940,512,1.6516
23.6983,485,1.5645
23.7026,473,1.5258
23.7073,498,1.6065
23.7122,514,1.6581
23.7165,495,1.5968
23.7210,475,1.5323
23.7253,481,1.5516
23.7300,508,1.6387
23.7343,514,1.6581
23.7385,489,1.5774
23.7428,477,1.5387
23.7470,501,1.6161
23.7513,521,1.6806
23.7555,510,1.6452
23.7597,489,1.5774
23.7640,485,1.5645
23.7682,514,1.6581
23.7725,527,1.7000
23.7768,508,1.6387
23.7811,489,1.5774
23.7854,500,1.6129
23.7898,522,1.6839
23.7944,528,1.7032
23.7986,505,1.6290
23.8029,499,1.6097
23.8071,527,1.7000
23.8114,549,1.7710
23.8158,539,1.7387
23.8201,517,1.6677
23.8244,522,1.6839
23.8287,559,1.8032
23.8330,577,1.8613
23.8373,558,1.8000
23.8416,536,1.7290
23.8459,540,1.7419
23.8501,556,1.7935
23.8543,554,1.7871
23.8586,515,1.6613
23.8628,495,1.5968
23.8671,512,1.6516
23.8713,526,1.6968
23.8756,515,1.6613
23.8798,492,1.5871
23.8840,489,1.5774
23.8882,516,1.6645
23.8925,528,1.7032
23.8967,508,1.6387
23.9010,486,1.5677
23.9053,490,1.5806
23.9096,507,1.6355
23.9139,502,1.6194
23.9182,464,1.4968
23.9225,445,1.4355
23.9268,475,1.5323
23.9310,532,1.7161
23.9353,598,1.9290
23.9396,664,2.1419
23.9440,792,2.5548
23.9484,973,3.1387
23.9531,1001,3.2290
23.9574,1001,3.2290
23.9617,1000,3.2258
23.9660,1000,3.2258
23.9704,952,3.0710
23.9747,763,2.4613
23.9789,568,1.8323
23.9831,453,1.4613
23.9873,439,1.4161
23.9917,453,1.4613
23.9960,449,1.4484
24.0002,431,1.3903
24.0045,431,1.3903
24.0087,458,1.4774
24.0129,470,1.5161
24.0171,448,1.4452
24.0214,430,1.3871
24.0257,439,1.4161
24.0299,465,1.5000
24.0348,469,1.5129
24.0391,444,1.4323
24.0434,437,1.4097
24.0478,463,1.4935
24.0520,481,1.5516
24.0563,471,1.5194
24.0606,452,1.4581
24.0649,455,1.4677
24.0693,484,1.5613
24.0736,496,1.6000
24.0779,472,1.5226
24.0822,457,1.4742
24.0865,476,1.5355
24.0907,500,1.6129
24.0950,501,1.6161
24.0994,478,1.5419
24.1037,473,1.5258
24.1079,502,1.6194
24.1121,524,1.6903
24.1165,512,1.6516
24.1208,494,1.5935
24.1250,498,1.6065
24.1292,528,1.7032
24.1334,541,1.7452
24.1377,524,1.6903
24.1419,514,1.6581
24.1462,533,1.7194
24.1504,560,1.8065
24.1547,570,1.8387
24.1589,549,1.7710
24.1637,544,1.7548
24.1681,576,1.8581
24.1724,597,1.9258
24.1767,582,1.8774
24.1811,565,1.8226
24.1855,572,1.8452
24.1898,602,1.9419
24.1941,611,1.9710
24.1986,584,1.8839
24.2029,569,1.8355
24.2073,589,1.9000
24.2115,600,1.9355
24.2157,586,1.8903
24.2200,552,1.7806
24.2243,535,1.7258
24.2286,552,1.7806
24.2329,554,1.7871
24.2371,524,1.6903
24.2414,494,1.5935
24.2457,489,1.5774
24.2499,506,1.6323
24.2541,504,1.6258
24.2583,473,1.5258
24.2626,454,1.4645
24.2669,468,1.5097
24.2711,488,1.5742
24.2753,484,1.5613
24.2795,454,1.4645
24.2838,443,1.4290
24.2881,469,1.5129
24.2923,486,1.5677
24.2965,473,1.5258
24.3008,451,1.4548
24.3052,455,1.4677
24.3095,484,1.5613
24.3139,497,1.6032
24.3183,474,1.5290
24.3226,460,1.4839
24.3270,480,1.5484
24.3313,502,1.6194
24.3356,500,1.6129
24.3399,474,1.5290
24.3442,468,1.5097
24.3485,499,1.6097
24.3534,514,1.6581
24.3577,492,1.5871
24.3619,476,1.5355
24.3662,488,1.5742
24.3705,510,1.6452
24.3748,514,1.6581
24.3791,486,1.5677
24.3839,474,1.5290
24.3882,500,1.6129
24.3925,516,1.6645
24.3967,500,1.6129
24.4010,478,1.5419
24.4052,477,1.5387
24.4095,503,1.6226
24.4137,514,1.6581
24.4179,490,1.5806
24.4221,470,1.5161
24.4263,480,1.5484
24.4306,502,1.6194
24.4348,506,1.6323
24.4390,479,1.5452
24.4432,465,1.5000
24.4475,485,1.5645
24.4519,506,1.6323
24.4562,494,1.5935
24.4605,470,1.5161
24.4648,467,1.5065
24.4691,495,1.5968
24.4735,506,1.6323
24.4778,481,1.5516
24.4821,463,1.4935
24.4864,476,1.5355
24.4907,501,1.6161
24.4953,501,1.6161
24.4996,473,1.5258
24.5038,463,1.4935
24.5082,489,1.5774
24.5125,508,1.6387
24.5168,493,1.5903
24.5211,471,1.5194
24.5254,471,1.5194
24.5297,498,1.6065
24.5340,509,1.6419
24.5382,485,1.5645
24.5425,468,1.5097
24.5468,485,1.5645
24.5516,508,1.6387
24.5559,505,1.6290
24.5603,477,1.5387
24.5652,475,1.5323
24.5695,509,1.6419
24.5738,526,1.6968
24.5782,505,1.6290
24.5825,486,1.5677
24.5868,504,1.6258
24.5911,533,1.7194
24.5955,540,1.7419
24.6003,520,1.6774
24.6047,517,1.6677
24.6090,542,1.7484
24.6133,545,1.7581
24.6176,516,1.6645
24.6220,486,1.5677
24.6263,487,1.5710
24.6307,506,1.6323
24.6350,506,1.6323
24.6393,474,1.5290
24.6436,459,1.4806
24.6480,482,1.5548
24.6523,503,1.6226
24.6567,493,1.5903
24.6610,468,1.5097
24.6656,467,1.5065
24.6702,494,1.5935
24.6745,499,1.6097
24.6789,461,1.4871
24.6832,438,1.4129
24.6876,443,1.4290
24.6919,461,1.4871
24.6962,478,1.5419
24.7010,515,1.6613
24.7054,599,1.9323
24.7097,744,2.4000
24.7140,909,2.9323
24.7184,998,3.2194
24.7227,1000,3.2258
24.7270,1002,3.2323
24.7317,1000,3.2258
24.7361,944,3.0452
24.7404,740,2.3871
24.7447,569,1.8355
24.7490,482,1.5548
24.7534,443,1.4290
24.7577,409,1.3194
24.7620,395,1.2742
24.7663,409,1.3194
24.7706,439,1.4161
24.7750,446,1.4387
24.7793,418,1.3484
24.7836,405,1.3065
24.7880,426,1.3742
24.7923,444,1.4323
24.7966,436,1.4065
24.8009,414,1.3355
24.8053,413,1.3323
24.8096,443,1.4290
24.8139,456,1.4710
24.8182,435,1.4032
24.8225,417,1.3452
24.8268,431,1.3903
24.8311,457,1.4742
24.8355,461,1.4871
24.8399,436,1.4065
24.8442,429,1.3839
24.8485,455,1.4677
24.8528,474,1.5290
24.8571,461,1.4871
24.8615,442,1.4258
24.8658,446,1.4387
24.8707,478,1.5419
24.8752,487,1.5710
24.8795,462,1.4903
24.8838,454,1.4645
24.8881,481,1.5516
24.8925,502,1.6194
24.8968,496,1.6000
24.9012,477,1.5387
24.9055,480,1.5484
24.9098,514,1.6581
24.9142,530,1.7097
24.9185,513,1.6548
24.9228,501,1.6161
24.9272,521,1.6806
24.9315,550,1.7742
24.9358,555,1.7903
24.9407,531,1.7129
24.9450,531,1.7129
24.9494,561,1.8097
24.9537,577,1.8613
24.9580,556,1.7935
24.9624,536,1.7290
24.9669,549,1.7710
24.9712,573,1.8484
24.9755,571,1.8419
24.9799,535,1.7258
24.9842,515,1.6613
24.9885,529,1.7065
24.9928,538,1.7355
24.9972,515,1.6613
25.0021,475,1.5323
25.0064,466,1.5032
25.0120,482,1.5548
25.0250,424,1.3677
25.0295,444,1.4323
25.0348,452,1.4581
25.0392,424,1.3677
25.0435,408,1.3161
25.0479,427,1.3774
25.0522,447,1.4419
25.0566,440,1.4194
25.0609,414,1.3355
25.0652,410,1.3226
25.0695,439,1.4161
25.0739,455,1.4677
25.0782,436,1.4065
25.0825,419,1.3516
25.0869,432,1.3935
25.0912,456,1.4710
25.0955,463,1.4935
25.1000,437,1.4097
25.1043,428,1.3806
25.1086,452,1.4581
25.1130,471,1.5194
25.1173,456,1.4710
25.1216,433,1.3968
25.1259,433,1.3968
25.1303,460,1.4839
25.1347,471,1.5194
25.1390,445,1.4355
25.1438,427,1.3774
25.1482,446,1.4387
25.1525,463,1.4935
25.1569,453,1.4613
25.1612,429,1.3839
25.1655,425,1.3710
25.1699,451,1.4548
25.1742,462,1.4903
25.1786,442,1.4258
25.1829,424,1.3677
25.1872,435,1.4032
25.1915,454,1.4645
25.1958,455,1.4677
25.2001,428,1.3806
25.2052,419,1.3516
25.2096,447,1.4419
25.2143,459,1.4806
25.2187,435,1.4032
25.2230,418,1.3484
25.2274,433,1.3968
25.2317,456,1.4710
25.2360,457,1.4742
25.2404,429,1.3839
25.2447,418,1.3484
25.2490,444,1.4323
25.2534,461,1.4871
25.2578,445,1.4355
25.2621,423,1.3645
25.2666,427,1.3774
25.2710,454,1.4645
25.2753,461,1.4871
25.2797,434,1.4000
25.2840,421,1.3581
25.2883,443,1.4290
25.2927,463,1.4935
25.2970,453,1.4613
25.3015,427,1.3774
25.3059,427,1.3774
25.3102,457,1.4742
25.3146,466,1.5032
25.3190,442,1.4258
25.3233,427,1.3774
25.3281,451,1.4548
25.3324,477,1.5387
25.3367,478,1.5419
25.3410,451,1.4548
25.3453,447,1.4419
25.3496,481,1.5516
25.3540,507,1.6355
25.3583,499,1.6097
25.3627,482,1.5548
25.3670,482,1.5548
25.3713,498,1.6065
25.3757,494,1.5935
25.3800,457,1.4742
25.3843,438,1.4129
25.3886,453,1.4613
25.3935,469,1.5129
25.3979,452,1.4581
25.4023,430,1.3871
25.4067,437,1.4097
25.4110,463,1.4935
25.4154,470,1.5161
25.4196,443,1.4290
25.4239,426,1.3742
25.4281,444,1.4323
25.4323,458,1.4774
25.4366,450,1.4516
25.4408,418,1.3484
25.4450,403,1.3000
25.4491,431,1.3903
25.4534,477,1.5387
25.4576,525,1.6935
25.4618,587,1.8935
25.4660,700,2.2581
25.4703,861,2.7774
25.4751,992,3.2000
25.4795,997,3.2161
25.4840,991,3.1968
25.4884,917,2.9581
25.4928,785,2.5323
25.4978,630,2.0323
25.5023,515,1.6613
25.5074,431,1.3903
25.5124,408,1.3161
25.5167,395,1.2742
25.5211,373,1.2032
25.5256,375,1.2097
25.5301,413,1.3323
25.5346,433,1.3968
25.5391,411,1.3258
25.5435,393,1.2677
25.5480,410,1.3226
25.5525,432,1.3935
25.5570,430,1.3871
25.5614,406,1.3097
25.5658,404,1.3032
25.5701,434,1.4000
25.5749,448,1.4452
25.5793,427,1.3774
25.5837,415,1.3387
25.5881,436,1.4065
25.5925,461,1.4871
25.5968,459,1.4806
25.6012,432,1.3935
25.6056,428,1.3806
25.6099,458,1.4774
25.6143,476,1.5355
25.6187,458,1.4774
25.6231,443,1.4290
25.6275,459,1.4806
25.6318,488,1.5742
25.6366,492,1.5871
25.6409,469,1.5129
25.6453,463,1.4935
25.6497,495,1.5968
25.6541,515,1.6613
25.6590,498,1.6065
25.6634,485,1.5645
25.6678,506,1.6323
25.6722,533,1.7194
25.6766,540,1.7419
25.6810,517,1.6677
25.6854,516,1.6645
25.6898,549,1.7710
25.6942,571,1.8419
25.6986,554,1.7871
25.7029,539,1.7387
25.7073,551,1.7774
25.7117,579,1.8677
25.7161,584,1.8839
25.7205,556,1.7935
25.7249,547,1.7645
25.7293,573,1.8484
25.7337,586,1.8903
25.7381,567,1.8290
25.7424,535,1.7258
25.7468,525,1.6935
25.7512,544,1.7548
25.7558,539,1.7387
25.7602,500,1.6129
25.7646,477,1.5387
25.7689,489,1.5774
25.7733,500,1.6129
25.7777,482,1.5548
25.7821,451,1.4548
25.7865,444,1.4323
25.7909,468,1.5097
25.7953,477,1.5387
25.7997,449,1.4484
25.8041,435,1.4032
25.8085,455,1.4677
25.8129,475,1.5323
25.8172,469,1.5129
25.8216,447,1.4419
25.8260,445,1.4355
25.8304,476,1.5355
25.8348,491,1.5839
25.8392,471,1.5194
25.8435,453,1.4613
25.8479,469,1.5129
25.8523,495,1.5968
25.8567,496,1.6000
25.8611,471,1.5194
25.8655,465,1.5000
25.8699,494,1.5935
25.8744,509,1.6419
25.8788,490,1.5806
25.8831,472,1.5226
25.8875,483,1.5581
25.8919,507,1.6355
25.8963,512,1.6516
25.9007,484,1.5613
25.9051,473,1.5258
25.9095,496,1.6000
25.9139,511,1.6484
25.9183,496,1.6000
25.9227,472,1.5226
25.9272,476,1.5355
25.9316,502,1.6194
25.9360,508,1.6387
25.9404,480,1.5484
25.9449,464,1.4968
25.9493,487,1.5710
25.9537,505,1.6290
25.9580,496,1.6000
25.9624,472,1.5226
25.9668,470,1.5161
25.9714,500,1.6129
25.9758,507,1.6355
25.9802,479,1.5452
25.9846,465,1.5000
25.9890,487,1.5710
25.9934,507,1.6355
25.9978,499,1.6097
26.0022,475,1.5323
26.0066,474,1.5290
26.0110,504,1.6258
26.0154,515,1.6613
26.0198,491,1.5839
26.0242,474,1.5290
26.0285,493,1.5903
26.0330,512,1.6516
26.0373,505,1.6290
26.0417,481,1.5516
26.0461,476,1.5355
26.0505,505,1.6290
26.0550,517,1.6677
26.0593,495,1.5968
26.0637,477,1.5387
26.0683,493,1.5903
26.0726,518,1.6710
26.0770,518,1.6710
26.0814,489,1.5774
26.0858,480,1.5484
26.0902,513,1.6548
26.0946,533,1.7194
26.0990,519,1.6742
26.1034,504,1.6258
26.1078,515,1.6613
26.1122,539,1.7387
26.1166,548,1.7677
26.1210,526,1.6968
26.1273,537,1.7323
26.1317,567,1.8290
26.1361,573,1.8484
26.1405,536,1.7290
26.1448,514,1.6581
26.1492,527,1.7000
26.1536,537,1.7323
26.1581,519,1.6742
26.1625,491,1.5839
26.1669,488,1.5742
26.1712,515,1.6613
26.1756,526,1.6968
26.1800,502,1.6194
26.1844,486,1.5677
26.1888,505,1.6290
26.1932,525,1.6935
26.1976,522,1.6839
26.2020,488,1.5742
26.2064,472,1.5226
26.2108,488,1.5742
26.2152,493,1.5903
26.2196,478,1.5419
26.2240,497,1.6032
26.2284,586,1.8903
26.2332,719,2.3194
26.2376,855,2.7581
26.2420,982,3.1677
26.2464,1002,3.2323
26.2508,1000,3.2258
26.2551,1003,3.2355
26.2595,1000,3.2258
26.2639,952,3.0710
26.2683,770,2.4839
26.2727,611,1.9710
26.2771,506,1.6323
26.2815,439,1.4161
26.2858,428,1.3806
26.2902,466,1.5032
26.2947,489,1.5774
26.2991,473,1.5258
26.3034,451,1.4548
26.3078,456,1.4710
26.3122,482,1.5548
26.3166,487,1.5710
26.3210,460,1.4839
26.3253,449,1.4484
26.3297,473,1.5258
26.3341,495,1.5968
26.3384,486,1.5677
26.3428,465,1.5000
26.3472,467,1.5065
26.3515,499,1.6097
26.3563,510,1.6452
26.3607,484,1.5613
26.3655,477,1.5387
26.3699,506,1.6323
26.3742,523,1.6871
26.3786,512,1.6516
26.3830,493,1.5903
26.3873,498,1.6065
26.3917,531,1.7129
26.3961,543,1.7516
26.4004,522,1.6839
26.4048,508,1.6387
26.4092,532,1.7161
26.4135,553,1.7839
26.4178,553,1.7839
26.4227,529,1.7065
26.4270,533,1.7194
26.4314,566,1.8258
26.4357,584,1.8839
26.4401,566,1.8258
26.4445,556,1.7935
26.4488,577,1.8613
26.4532,608,1.9613
26.4575,614,1.9806
26.4620,590,1.9032
26.4664,583,1.8806
26.4707,615,1.9839
26.4751,634,2.0452
26.4794,618,1.9935
26.4838,602,1.9419
26.4881,612,1.9742
26.4925,639,2.0613
26.4968,643,2.0742
26.5012,610,1.9677
26.5055,592,1.9097
26.5099,609,1.9645
26.5143,619,1.9968
26.5186,599,1.9323
26.5230,563,1.8161
26.5274,549,1.7710
26.5317,566,1.8258
26.5361,566,1.8258
26.5408,528,1.7032
26.5452,504,1.6258
26.5495,519,1.6742
26.5539,532,1.7161
26.5582,522,1.6839
26.5628,493,1.5903
26.5672,488,1.5742
26.5715,517,1.6677
26.5759,527,1.7000
26.5803,502,1.6194
26.5849,487,1.5710
26.5893,509,1.6419
26.5938,531,1.7129
26.5982,528,1.7032
26.6027,502,1.6194
26.6071,502,1.6194
26.6116,534,1.7226
26.6161,544,1.7548
26.6206,520,1.6774
26.6250,507,1.6355
