time_s,adc_raw,voltage
0.0000,420,1.3548
0.0046,561,1.8097
0.0186,395,1.2742
0.0255,579,1.8677
0.0301,578,1.8645
0.0347,446,1.4387
0.0393,426,1.3742
0.0438,560,1.8065
0.0483,625,2.0161
0.0528,529,1.7065
0.0574,448,1.4452
0.0619,542,1.7484
0.0665,659,2.1258
0.0711,603,1.9452
0.0758,449,1.4484
0.0806,464,1.4968
0.0852,598,1.9290
0.0899,590,1.9032
0.0945,442,1.4258
0.0990,396,1.2774
0.1036,521,1.6806
0.1082,582,1.8774
0.1128,475,1.5323
0.1173,376,1.2129
0.1219,460,1.4839
0.1265,580,1.8710
0.1311,536,1.7290
0.1357,396,1.2774
0.1403,411,1.3258
0.1449,550,1.7742
0.1495,568,1.8323
0.1541,433,1.3968
0.1587,368,1.1871
0.1633,470,1.5161
0.1678,539,1.7387
0.1724,465,1.5000
0.1773,441,1.4226
0.1819,665,2.1452
0.1865,955,3.0806
0.1911,1001,3.2290
0.1956,1001,3.2290
0.2002,1001,3.2290
0.2048,996,3.2129
0.2093,855,2.7581
0.2139,527,1.7000
0.2189,346,1.1161
0.2234,442,1.4258
0.2279,528,1.7032
0.2324,452,1.4581
0.2370,357,1.1516
0.2415,430,1.3871
0.2461,564,1.8194
0.2508,534,1.7226
0.2555,399,1.2871
0.2619,465,1.5000
0.2667,590,1.9032
0.2713,541,1.7452
0.2758,409,1.3194
0.2804,430,1.3871
0.2850,575,1.8548
0.2897,590,1.9032
0.3074,623,2.0097
0.3157,438,1.4129
0.3208,475,1.5323
0.3258,627,2.0226
0.3309,600,1.9355
0.3360,455,1.4677
0.3413,513,1.6548
0.3463,655,2.1129
0.3510,623,2.0097
0.3555,491,1.5839
0.3601,500,1.6129
0.3647,645,2.0806
0.3693,679,2.1903
0.3739,553,1.7839
0.3785,499,1.6097
0.3831,625,2.0161
0.3877,720,2.3226
0.3923,636,2.0516
0.3970,526,1.6968
0.4016,597,1.9258
0.4062,730,2.3548
0.4107,703,2.2677
0.4154,563,1.8161
0.4199,562,1.8129
0.4247,707,2.2806
0.4294,730,2.3548
0.4339,595,1.9194
0.4385,526,1.6968
0.4431,634,2.0452
0.4477,712,2.2968
0.4522,611,1.9710
0.4568,482,1.5548
0.4613,528,1.7032
0.4659,647,2.0871
0.4704,619,1.9968
0.4749,467,1.5065
0.4796,436,1.4065
0.4841,565,1.8226
0.4887,609,1.9645
0.4933,484,1.5613
0.4978,393,1.2677
0.5024,486,1.5677
0.5069,595,1.9194
0.5115,537,1.7323
0.5160,404,1.3032
0.5206,432,1.3935
0.5252,573,1.8484
0.5298,579,1.8677
0.5344,444,1.4323
0.5389,401,1.2935
0.5435,528,1.7032
0.5480,601,1.9387
0.5526,506,1.6323
0.5572,402,1.2968
0.5617,476,1.5355
0.5663,604,1.9484
0.5708,569,1.8355
0.5754,430,1.3871
0.5800,432,1.3935
0.5845,571,1.8419
0.5891,606,1.9548
0.5937,480,1.5484
0.5983,411,1.3258
0.6029,524,1.6903
0.6074,621,2.0032
0.6119,545,1.7581
0.6165,421,1.3581
0.6210,461,1.4871
0.6255,594,1.9161
0.6301,591,1.9065
0.6346,453,1.4613
0.6391,417,1.3452
0.6437,546,1.7613
0.6483,615,1.9839
0.6529,510,1.6452
0.6574,409,1.3194
0.6620,483,1.5581
0.6665,601,1.9387
0.6711,557,1.7968
0.6756,419,1.3516
0.6801,424,1.3677
0.6847,564,1.8194
0.6893,593,1.9129
0.6938,464,1.4968
0.6983,396,1.2774
0.7029,505,1.6290
0.7074,599,1.9323
0.7120,526,1.6968
0.7165,400,1.2903
0.7210,441,1.4226
0.7256,575,1.8548
0.7301,568,1.8323
0.7347,432,1.3935
0.7393,406,1.3097
0.7439,543,1.7516
0.7485,609,1.9645
0.7530,504,1.6258
0.7576,410,1.3226
0.7621,495,1.5968
0.7666,615,1.9839
0.7712,571,1.8419
0.7757,434,1.4000
0.7804,447,1.4419
0.7850,586,1.8903
0.7898,602,1.9419
0.7943,471,1.5194
0.7989,428,1.3806
0.8035,554,1.7871
0.8080,636,2.0516
0.8125,562,1.8129
0.8170,470,1.5161
0.8216,549,1.7710
0.8261,678,2.1871
0.8307,646,2.0839
0.8352,494,1.5935
0.8399,471,1.5194
0.8444,599,1.9323
0.8489,632,2.0387
0.8535,501,1.6161
0.8580,409,1.3194
0.8625,498,1.6065
0.8671,598,1.9290
0.8716,534,1.7226
0.8761,401,1.2935
0.8806,427,1.3774
0.8852,566,1.8258
0.8897,578,1.8645
0.8943,448,1.4452
0.8988,397,1.2806
0.9033,514,1.6581
0.9078,596,1.9226
0.9123,508,1.6387
0.9167,383,1.2355
0.9212,412,1.3290
0.9257,533,1.7194
0.9302,531,1.7129
0.9347,443,1.4290
0.9392,516,1.6645
0.9437,792,2.5548
0.9482,998,3.2194
0.9526,999,3.2226
0.9572,1001,3.2290
0.9616,999,3.2226
0.9661,968,3.1226
0.9706,729,2.3516
0.9751,424,1.3677
0.9797,324,1.0452
0.9841,439,1.4161
0.9886,504,1.6258
0.9931,408,1.3161
0.9977,324,1.0452
1.0021,414,1.3355
1.0066,534,1.7226
1.0112,490,1.5806
1.0156,354,1.1419
1.0202,359,1.1581
1.0247,503,1.6226
1.0292,540,1.7419
1.0336,421,1.3581
1.0381,348,1.1226
1.0426,454,1.4645
1.0471,564,1.8194
1.0516,507,1.6355
1.0561,376,1.2129
1.0606,401,1.2935
1.0650,547,1.7645
1.0696,571,1.8419
1.0740,444,1.4323
1.0785,386,1.2452
1.0830,502,1.6194
1.0875,604,1.9484
1.0920,534,1.7226
1.0964,410,1.3226
1.1009,450,1.4516
1.1054,596,1.9226
1.1099,607,1.9581
1.1144,471,1.5194
1.1189,428,1.3806
1.1234,557,1.7968
1.1279,645,2.0806
1.1324,560,1.8065
1.1369,444,1.4323
1.1414,507,1.6355
1.1459,649,2.0935
1.1504,642,2.0710
1.1549,503,1.6226
1.1595,480,1.5484
1.1640,619,1.9968
1.1685,682,2.2000
1.1731,572,1.8452
1.1776,473,1.5258
1.1821,562,1.8129
1.1866,688,2.2194
1.1912,646,2.0839
1.1957,498,1.6065
1.2002,494,1.5935
1.2047,628,2.0258
1.2092,650,2.0968
1.2138,502,1.6194
1.2184,410,1.3226
1.2230,512,1.6516
1.2275,596,1.9226
1.2321,504,1.6258
1.2366,364,1.1742
1.2411,402,1.2968
1.2456,541,1.7452
1.2501,531,1.7129
1.2547,380,1.2258
1.2592,339,1.0935
1.2637,473,1.5258
1.2683,545,1.7581
1.2728,434,1.4000
1.2773,324,1.0452
1.2819,401,1.2935
1.2864,536,1.7290
1.2909,504,1.6258
1.2954,359,1.1581
1.2999,355,1.1452
1.3044,504,1.6258
1.3089,553,1.7839
1.3134,430,1.3871
1.3179,343,1.1065
1.3224,446,1.4387
1.3269,567,1.8290
1.3314,514,1.6581
1.3359,374,1.2065
1.3405,396,1.2774
1.3450,547,1.7645
1.3496,570,1.8387
1.3541,432,1.3935
1.3586,368,1.1871
1.3632,492,1.5871
1.3677,587,1.8935
1.3722,501,1.6161
1.3767,373,1.2032
1.3812,424,1.3677
1.3855,560,1.8065
1.3899,564,1.8194
1.3943,428,1.3806
1.3986,368,1.1871
1.4029,479,1.5452
1.4073,583,1.8806
1.4116,523,1.6871
1.4159,382,1.2323
1.4203,393,1.2677
1.4246,536,1.7290
1.4289,576,1.8581
1.4333,456,1.4710
1.4376,363,1.1710
1.4420,443,1.4290
1.4463,575,1.8548
1.4506,554,1.7871
1.4550,411,1.3258
1.4593,378,1.2194
1.4636,504,1.6258
1.4679,585,1.8871
1.4722,502,1.6194
1.4766,377,1.2161
1.4809,415,1.3387
1.4853,562,1.8129
1.4897,578,1.8645
1.4940,445,1.4355
1.4983,376,1.2129
1.5026,481,1.5516
1.5070,600,1.9355
1.5114,552,1.7806
1.5158,420,1.3548
1.5202,433,1.3968
1.5246,580,1.8710
1.5290,632,2.0387
1.5333,525,1.6935
1.5377,450,1.4516
1.5421,542,1.7484
1.5464,668,2.1548
1.5508,630,2.0323
1.5552,475,1.5323
1.5596,443,1.4290
1.5640,574,1.8516
1.5683,637,2.0548
1.5727,525,1.6935
1.5770,400,1.2903
1.5814,452,1.4581
1.5858,585,1.8871
1.5902,580,1.8710
1.5946,436,1.4065
1.5989,388,1.2516
1.6033,513,1.6548
1.6077,607,1.9581
1.6121,529,1.7065
1.6164,398,1.2839
1.6208,428,1.3806
1.6252,569,1.8355
1.6296,589,1.9000
1.6339,452,1.4581
1.6383,368,1.1871
1.6427,449,1.4484
1.6471,552,1.7806
1.6514,520,1.6774
1.6558,455,1.4677
1.6601,588,1.8968
1.6644,874,2.8194
1.6688,998,3.2194
1.6731,1001,3.2290
1.6775,1000,3.2258
1.6818,994,3.2065
1.6862,933,3.0097
1.6905,709,2.2871
1.6948,422,1.3613
1.6992,305,0.9839
1.7035,408,1.3161
1.7078,505,1.6290
1.7122,443,1.4290
1.7165,332,1.0710
1.7208,374,1.2065
1.7251,519,1.6742
1.7295,544,1.7548
1.7339,415,1.3387
1.7382,341,1.1000
1.7425,441,1.4226
1.7468,556,1.7935
1.7511,515,1.6613
1.7555,376,1.2129
1.7598,369,1.1903
1.7641,509,1.6419
1.7684,577,1.8613
1.7727,478,1.5419
1.7770,369,1.1903
1.7813,427,1.3774
1.7856,566,1.8258
1.7899,572,1.8452
1.7942,440,1.4194
1.7985,379,1.2226
1.8028,493,1.5903
1.8072,606,1.9548
1.8115,557,1.7968
1.8158,423,1.3645
1.8202,431,1.3903
1.8244,575,1.8548
1.8287,628,2.0258
1.8331,525,1.6935
1.8374,425,1.3710
1.8417,494,1.5935
1.8460,631,2.0355
1.8503,627,2.0226
1.8547,496,1.6000
1.8590,456,1.4710
1.8634,585,1.8871
1.8677,682,2.2000
1.8720,614,1.9806
1.8763,489,1.5774
1.8807,517,1.6677
1.8851,662,2.1355
1.8894,692,2.2323
1.8937,570,1.8387
1.8980,489,1.5774
1.9024,582,1.8774
1.9067,704,2.2710
1.9111,661,2.1323
1.9154,515,1.6613
1.9197,491,1.5839
1.9241,615,1.9839
1.9284,668,2.1548
1.9327,558,1.8000
1.9370,429,1.3839
1.9413,470,1.5161
1.9457,598,1.9290
1.9500,593,1.9129
1.9544,445,1.4355
1.9588,381,1.2290
1.9637,507,1.6355
1.9681,578,1.8645
1.9725,482,1.5548
1.9768,362,1.1677
1.9811,407,1.3129
1.9855,545,1.7581
1.9898,560,1.8065
1.9941,426,1.3742
1.9985,360,1.1613
2.0028,466,1.5032
2.0071,576,1.8581
2.0115,520,1.6774
2.0158,382,1.2323
2.0201,386,1.2452
2.0245,529,1.7065
2.0288,580,1.8710
2.0331,470,1.5161
2.0375,371,1.1968
2.0418,443,1.4290
2.0461,576,1.8581
2.0504,564,1.8194
2.0548,424,1.3677
2.0591,384,1.2387
2.0634,508,1.6387
2.0677,598,1.9290
2.0720,525,1.6935
2.0763,395,1.2742
2.0806,419,1.3516
2.0850,564,1.8194
2.0893,595,1.9194
2.0937,471,1.5194
2.0980,386,1.2452
2.1023,473,1.5258
2.1066,591,1.9065
2.1110,558,1.8000
2.1153,419,1.3516
2.1197,399,1.2871
2.1240,533,1.7194
2.1284,598,1.9290
2.1328,497,1.6032
2.1371,384,1.2387
2.1415,442,1.4258
2.1458,580,1.8710
2.1501,579,1.8677
2.1544,441,1.4226
2.1588,385,1.2419
2.1631,499,1.6097
2.1674,598,1.9290
2.1717,537,1.7323
2.1760,403,1.3000
2.1803,412,1.3290
2.1846,550,1.7742
2.1889,594,1.9161
2.1933,481,1.5516
2.1978,386,1.2452
2.2021,469,1.5129
2.2064,596,1.9226
2.2108,571,1.8419
2.2151,430,1.3871
2.2195,408,1.3161
2.2238,545,1.7581
2.2281,629,2.0290
2.2324,547,1.7645
2.2367,427,1.3774
2.2411,476,1.5355
2.2454,626,2.0194
2.2498,656,2.1161
2.2541,543,1.7516
2.2584,476,1.5355
2.2627,568,1.8323
2.2670,671,2.1645
2.2714,607,1.9581
2.2757,455,1.4677
2.2801,446,1.4387
2.2844,575,1.8548
2.2887,620,2.0000
2.2930,502,1.6194
2.2974,388,1.2516
2.3017,447,1.4419
2.3060,577,1.8613
2.3103,568,1.8323
2.3146,430,1.3871
2.3190,382,1.2323
2.3234,503,1.6226
2.3277,592,1.9097
2.3321,514,1.6581
2.3365,381,1.2290
2.3408,409,1.3194
2.3451,550,1.7742
2.3496,568,1.8323
2.3540,419,1.3516
2.3584,324,1.0452
2.3628,428,1.3806
2.3671,575,1.8548
2.3716,600,1.9355
2.3760,596,1.9226
2.3803,756,2.4387
2.3846,998,3.2194
2.3890,1004,3.2387
2.3933,1001,3.2290
2.3977,934,3.0129
2.4021,749,2.4161
2.4064,651,2.1000
2.4107,503,1.6226
2.4150,316,1.0194
2.4194,282,0.9097
2.4237,426,1.3742
2.4280,529,1.7065
2.4323,455,1.4677
2.4367,338,1.0903
2.4410,379,1.2226
2.4454,526,1.6968
2.4497,545,1.7581
2.4541,417,1.3452
2.4584,352,1.1355
2.4627,458,1.4774
2.4671,577,1.8613
2.4714,531,1.7129
2.4757,398,1.2839
2.4801,403,1.3000
2.4844,547,1.7645
2.4888,605,1.9516
2.4932,496,1.6000
2.4976,397,1.2806
2.5020,478,1.5419
2.5064,610,1.9677
2.5107,595,1.9194
2.5150,459,1.4806
2.5194,429,1.3839
2.5237,560,1.8065
2.5281,644,2.0774
2.5324,560,1.8065
2.5368,440,1.4194
2.5411,487,1.5710
2.5455,633,2.0419
2.5498,653,2.1065
2.5541,526,1.6968
2.5585,463,1.4935
2.5628,575,1.8548
2.5672,694,2.2387
2.5715,644,2.0774
2.5758,510,1.6452
2.5801,512,1.6516
2.5844,659,2.1258
2.5888,719,2.3194
2.5931,612,1.9742
2.5975,512,1.6516
2.6018,583,1.8806
2.6061,716,2.3097
2.6105,705,2.2742
2.6148,565,1.8226
2.6192,523,1.6871
2.6235,645,2.0806
2.6279,729,2.3516
2.6325,632,2.0387
2.6369,492,1.5871
2.6414,529,1.7065
2.6460,657,2.1194
2.6506,629,2.0290
2.6550,471,1.5194
2.6594,422,1.3613
2.6638,543,1.7516
2.6681,613,1.9774
2.6725,517,1.6677
2.6768,387,1.2484
2.6812,424,1.3677
2.6855,560,1.8065
2.6898,569,1.8355
2.6942,430,1.3871
2.6986,361,1.1645
2.7031,473,1.5258
2.7075,575,1.8548
2.7119,507,1.6355
2.7163,375,1.2097
2.7206,395,1.2742
2.7250,541,1.7452
2.7296,568,1.8323
2.7340,440,1.4194
2.7384,366,1.1806
2.7429,480,1.5484
2.7474,588,1.8968
2.7518,529,1.7065
2.7561,398,1.2839
2.7605,411,1.3258
2.7649,553,1.7839
2.7692,594,1.9161
2.7735,477,1.5387
2.7779,390,1.2581
2.7823,476,1.5355
2.7868,601,1.9387
2.7913,555,1.7903
2.7957,416,1.3419
2.8000,408,1.3161
2.8043,546,1.7613
2.8087,608,1.9613
2.8131,499,1.6097
2.8176,393,1.2677
2.8220,466,1.5032
2.8263,596,1.9226
2.8308,570,1.8387
2.8353,422,1.3613
2.8399,407,1.3129
2.8443,542,1.7484
2.8488,595,1.9194
2.8532,488,1.5742
2.8576,390,1.2581
2.8619,458,1.4774
2.8662,586,1.8903
2.8706,570,1.8387
2.8750,430,1.3871
2.8793,395,1.2742
2.8837,522,1.6839
2.8881,602,1.9419
2.8925,513,1.6548
2.8969,391,1.2613
2.9015,444,1.4323
2.9060,579,1.8677
2.9104,570,1.8387
2.9149,427,1.3774
2.9196,396,1.2774
2.9241,528,1.7032
2.9285,596,1.9226
2.9330,490,1.5806
2.9375,384,1.2387
2.9420,458,1.4774
2.9463,590,1.9032
2.9507,569,1.8355
2.9553,427,1.3774
2.9599,417,1.3452
2.9644,563,1.8161
2.9690,623,2.0097
2.9737,502,1.6194
2.9782,420,1.3548
2.9826,524,1.6903
2.9870,656,2.1161
2.9916,618,1.9935
2.9961,477,1.5387
3.0004,476,1.5355
3.0049,614,1.9806
3.0096,632,2.0387
3.0142,491,1.5839
3.0189,423,1.3645
3.0235,542,1.7484
3.0285,619,1.9968
3.0330,507,1.6355
3.0374,394,1.2710
3.0418,459,1.4806
3.0462,596,1.9226
3.0506,581,1.8742
3.0549,445,1.4355
3.0593,405,1.3065
3.0637,531,1.7129
3.0680,613,1.9774
3.0724,532,1.7161
3.0767,408,1.3161
3.0811,449,1.4484
3.0854,589,1.9000
3.0898,596,1.9226
3.0942,430,1.3871
3.0990,366,1.1806
3.1034,504,1.6258
3.1077,663,2.1387
3.1121,708,2.2839
3.1165,735,2.3710
3.1208,919,2.9645
3.1252,1003,3.2355
3.1297,1002,3.2323
3.1341,1000,3.2258
3.1384,877,2.8290
3.1428,710,2.2903
3.1471,627,2.0226
3.1515,491,1.5839
3.1558,334,1.0774
3.1603,344,1.1097
3.1648,506,1.6323
3.1692,558,1.8000
3.1736,443,1.4290
3.1780,353,1.1387
3.1824,439,1.4161
3.1867,560,1.8065
3.1910,534,1.7226
3.1953,398,1.2839
3.1996,376,1.2129
3.2039,509,1.6419
3.2082,586,1.8903
3.2259,575,1.8548
3.2302,583,1.8806
3.2344,450,1.4516
3.2387,393,1.2677
3.2430,501,1.6161
3.2472,611,1.9710
3.2515,567,1.8290
3.2557,435,1.4032
3.2600,432,1.3935
3.2643,568,1.8323
3.2685,639,2.0613
3.2728,548,1.7677
3.2770,436,1.4065
3.2813,482,1.5548
3.2855,621,2.0032
3.2898,642,2.0710
3.2940,513,1.6548
3.2983,449,1.4484
3.3025,547,1.7645
3.3068,669,2.1581
3.3111,644,2.0774
3.3153,513,1.6548
3.3196,500,1.6129
3.3239,637,2.0548
3.3282,726,2.3419
3.3325,648,2.0903
3.3368,528,1.7032
3.3411,566,1.8258
3.3454,710,2.2903
3.3497,736,2.3742
3.3540,611,1.9710
3.3583,532,1.7161
3.3627,624,2.0129
3.3670,734,2.3677
3.3713,686,2.2129
3.3756,533,1.7194
3.3799,505,1.6290
3.3841,618,1.9935
3.3884,671,2.1645
3.3926,565,1.8226
3.3968,428,1.3806
3.4011,452,1.4581
3.4053,581,1.8742
3.4095,601,1.9387
3.4137,475,1.5323
3.4179,379,1.2226
3.4222,448,1.4452
3.4264,569,1.8355
3.4306,554,1.7871
3.4349,412,1.3290
3.4392,365,1.1774
3.4435,482,1.5548
3.4478,574,1.8516
3.4521,504,1.6258
3.4563,374,1.2065
3.4606,388,1.2516
3.4648,529,1.7065
3.4691,574,1.8516
3.4734,463,1.4935
3.4776,364,1.1742
3.4823,444,1.4323
3.4866,568,1.8323
3.4909,548,1.7677
3.4951,413,1.3323
3.4993,379,1.2226
3.5036,500,1.6129
3.5078,591,1.9065
3.5121,520,1.6774
3.5163,386,1.2452
3.5205,397,1.2806
3.5248,533,1.7194
3.5290,577,1.8613
3.5332,469,1.5129
3.5374,361,1.1645
3.5416,417,1.3452
3.5459,554,1.7871
3.5501,564,1.8194
3.5543,436,1.4065
3.5585,366,1.1806
3.5627,460,1.4839
3.5670,575,1.8548
3.5712,542,1.7484
3.5754,404,1.3032
3.5796,376,1.2129
3.5838,500,1.6129
3.5880,583,1.8806
3.5922,508,1.6387
3.5964,376,1.2129
3.6007,390,1.2581
3.6049,528,1.7032
3.6091,572,1.8452
3.6133,464,1.4968
3.6175,362,1.1677
3.6217,423,1.3645
3.6259,557,1.7968
3.6302,564,1.8194
3.6344,432,1.3935
3.6386,366,1.1806
3.6428,463,1.4935
3.6470,579,1.8677
3.6512,544,1.7548
3.6554,406,1.3097
3.6597,381,1.2290
3.6639,509,1.6419
3.6681,591,1.9065
3.6724,514,1.6581
3.6766,390,1.2581
3.6808,412,1.3290
3.6850,552,1.7806
3.6893,590,1.9032
3.6935,480,1.5484
3.6977,382,1.2323
3.7019,454,1.4645
3.7061,592,1.9097
3.7104,595,1.9194
3.7146,470,1.5161
3.7188,416,1.3419
3.7231,524,1.6903
3.7273,640,2.0645
3.7315,609,1.9645
3.7357,484,1.5613
3.7399,470,1.5161
3.7441,591,1.9065
3.7483,658,2.1226
3.7525,563,1.8161
3.7567,428,1.3806
3.7610,449,1.4484
3.7652,582,1.8774
3.7697,598,1.9290
3.7740,461,1.4871
3.7784,375,1.2097
3.7827,464,1.4968
3.7869,576,1.8581
3.7912,541,1.7452
3.7955,398,1.2839
3.7998,376,1.2129
3.8041,511,1.6484
3.8085,587,1.8935
3.8128,494,1.5935
3.8171,374,1.2065
3.8214,416,1.3419
3.8257,549,1.7710
3.8299,563,1.8161
3.8341,428,1.3806
3.8383,330,1.0645
3.8425,405,1.3065
3.8471,545,1.7581
3.8514,559,1.8032
3.8556,528,1.7032
3.8598,646,2.0839
3.8640,906,2.9226
3.8682,1003,3.2355
3.8725,1002,3.2323
3.8768,997,3.2161
3.8811,898,2.8968
3.8854,802,2.5871
3.8896,650,2.0968
3.8939,418,1.3484
3.8981,282,0.9097
3.9023,356,1.1484
3.9065,500,1.6129
3.9107,500,1.6129
3.9150,374,1.2065
3.9192,333,1.0742
3.9234,446,1.4387
3.9276,547,1.7645
3.9318,496,1.6000
3.9360,363,1.1710
3.9402,363,1.1710
3.9444,498,1.6065
3.9486,569,1.8355
3.9528,480,1.5484
3.9571,367,1.1839
3.9613,410,1.3226
3.9655,553,1.7839
3.9697,579,1.8677
3.9739,460,1.4839
3.9782,380,1.2258
3.9824,466,1.5032
3.9866,595,1.9194
3.9908,581,1.8742
3.9950,446,1.4387
3.9993,406,1.3097
4.0035,526,1.6968
4.0077,625,2.0161
4.0119,568,1.8323
4.0161,434,1.4000
4.0203,436,1.4065
4.0245,579,1.8677
4.0287,648,2.0903
4.0329,555,1.7903
4.0372,444,1.4323
4.0415,500,1.6129
4.0458,644,2.0774
4.0502,657,2.1194
4.0545,528,1.7032
4.0588,470,1.5161
4.0631,585,1.8871
4.0674,699,2.2548
4.0717,655,2.1129
4.0760,519,1.6742
4.0827,595,1.9194
4.0871,712,2.2968
4.0915,676,2.1806
4.0958,536,1.7290
4.1002,532,1.7161
4.1047,671,2.1645
4.1091,717,2.3129
4.1138,585,1.8871
4.1182,484,1.5613
4.1226,560,1.8065
4.1271,668,2.1548
4.1315,610,1.9677
4.1359,452,1.4581
4.1402,430,1.3871
4.1446,554,1.7871
4.1490,600,1.9355
4.1534,477,1.5387
4.1578,366,1.1806
4.1622,431,1.3903
4.1665,558,1.8000
4.1709,534,1.7226
4.1753,387,1.2484
4.1797,361,1.1645
4.1841,493,1.5903
4.1885,568,1.8323
4.1929,470,1.5161
4.1972,352,1.1355
4.2016,403,1.3000
4.2060,542,1.7484
4.2104,543,1.7516
4.2147,407,1.3129
4.2190,354,1.1419
4.2234,473,1.5258
4.2278,574,1.8516
4.2322,506,1.6323
4.2366,374,1.2065
4.2410,398,1.2839
4.2454,542,1.7484
4.2498,570,1.8387
4.2542,444,1.4323
4.2586,371,1.1968
4.2631,476,1.5355
4.2675,587,1.8935
4.2719,528,1.7032
4.2763,393,1.2677
4.2807,405,1.3065
4.2850,547,1.7645
4.2895,585,1.8871
4.2939,463,1.4935
4.2983,377,1.2161
4.3026,464,1.4968
4.3069,586,1.8903
4.3113,555,1.7903
4.3156,418,1.3484
4.3199,399,1.2871
4.3243,531,1.7129
4.3286,601,1.9387
4.3330,510,1.6452
4.3373,399,1.2871
4.3416,449,1.4484
4.3459,584,1.8839
4.3503,590,1.9032
4.3546,459,1.4806
4.3590,401,1.2935
4.3633,511,1.6484
4.3676,612,1.9742
4.3720,555,1.7903
4.3763,422,1.3613
4.3828,497,1.6032
4.3872,609,1.9645
4.3916,568,1.8323
4.3959,431,1.3903
4.4002,422,1.3613
4.4045,552,1.7806
4.4088,615,1.9839
4.4133,509,1.6419
4.4176,405,1.3065
4.4219,466,1.5032
4.4262,600,1.9355
4.4305,601,1.9387
4.4347,467,1.5065
4.4390,411,1.3258
4.4433,519,1.6742
4.4476,620,2.0000
4.4519,568,1.8323
4.4561,442,1.4258
4.4604,451,1.4548
4.4647,595,1.9194
4.4691,658,2.1226
4.4734,564,1.8194
4.4777,468,1.5097
4.4820,534,1.7226
4.4862,673,2.1710
4.4905,687,2.2161
4.4948,560,1.8065
4.4991,499,1.6097
4.5034,594,1.9161
4.5076,677,2.1839
4.5119,608,1.9613
4.5162,466,1.5032
4.5205,457,1.4742
4.5248,580,1.8710
4.5290,624,2.0129
4.5333,512,1.6516
4.5377,400,1.2903
4.5420,456,1.4710
4.5462,588,1.8968
4.5505,587,1.8935
4.5548,455,1.4677
4.5591,400,1.2903
4.5634,507,1.6355
4.5676,608,1.9613
4.5719,550,1.7742
4.5763,418,1.3484
4.5806,424,1.3677
4.5849,558,1.8000
4.5892,595,1.9194
4.5935,465,1.5000
4.5978,350,1.1290
4.6021,416,1.3419
4.6063,584,1.8839
4.6106,675,2.1774
4.6149,688,2.2194
4.6192,786,2.5355
4.6234,1002,3.2323
4.6277,1005,3.2419
4.6320,1003,3.2355
4.6363,981,3.1645
4.6406,773,2.4935
4.6449,663,2.1387
4.6491,567,1.8290
4.6534,405,1.3065
4.6577,298,0.9613
4.6620,371,1.1968
4.6662,518,1.6710
4.6705,524,1.6903
4.6748,393,1.2677
4.6791,340,1.0968
4.6835,450,1.4516
4.6879,553,1.7839
4.6922,494,1.5935
4.6965,365,1.1774
4.7008,378,1.2194
4.7051,518,1.6710
4.7093,567,1.8290
4.7136,460,1.4839
4.7179,366,1.1806
4.7222,434,1.4000
4.7265,567,1.8290
4.7308,557,1.7968
4.7351,422,1.3613
4.7394,380,1.2258
4.7437,498,1.6065
4.7480,593,1.9129
4.7523,529,1.7065
4.7566,403,1.3000
4.7609,423,1.3645
4.7652,564,1.8194
4.7696,607,1.9581
4.7738,496,1.6000
4.7781,410,1.3226
4.7823,484,1.5613
4.7865,613,1.9774
4.7907,611,1.9710
4.7950,483,1.5581
4.7993,441,1.4226
4.8035,556,1.7935
4.8077,657,2.1194
4.8119,610,1.9677
4.8161,487,1.5710
4.8204,493,1.5903
4.8246,629,2.0290
4.8289,699,2.2548
4.8332,608,1.9613
4.8374,499,1.6097
4.8417,552,1.7806
4.8460,688,2.2194
4.8503,699,2.2548
4.8546,574,1.8516
4.8589,507,1.6355
4.8632,604,1.9484
4.8675,705,2.2742
4.8718,649,2.0935
4.8761,503,1.6226
4.8804,481,1.5516
4.8847,596,1.9226
4.8889,640,2.0645
4.8931,531,1.7129
4.8974,406,1.3097
4.9016,439,1.4161
4.9059,562,1.8129
4.9101,573,1.8484
4.9142,444,1.4323
4.9184,358,1.1548
4.9227,436,1.4065
4.9269,553,1.7839
4.9311,532,1.7161
4.9353,399,1.2871
4.9395,361,1.1645
4.9437,474,1.5290
4.9479,566,1.8258
4.9521,508,1.6387
4.9563,380,1.2258
4.9605,383,1.2355
4.9647,517,1.6677
4.9689,579,1.8677
4.9731,488,1.5742
4.9781,375,1.2097
4.9829,468,1.5097
4.9872,584,1.8839
4.9915,550,1.7742
4.9958,418,1.3484
5.0005,407,1.3129
5.0176,391,1.2613
5.0235,503,1.6226
5.0278,603,1.9452
5.0321,544,1.7548
5.0364,412,1.3290
5.0408,423,1.3645
5.0451,560,1.8065
5.0495,605,1.9516
5.0538,494,1.5935
5.0580,404,1.3032
5.0623,475,1.5323
5.0666,601,1.9387
5.0709,590,1.9032
5.0751,453,1.4613
5.0795,407,1.3129
5.0838,520,1.6774
5.0881,612,1.9742
5.0923,545,1.7581
5.0966,416,1.3419
5.1009,432,1.3935
5.1053,567,1.8290
5.1096,605,1.9516
5.1139,492,1.5871
5.1182,401,1.2935
5.1225,476,1.5355
5.1267,600,1.9355
5.1310,585,1.8871
5.1354,449,1.4484
5.1397,412,1.3290
5.1440,535,1.7258
5.1484,621,2.0032
5.1527,545,1.7581
5.1570,421,1.3581
5.1613,448,1.4452
5.1656,583,1.8806
5.1699,608,1.9613
5.1742,485,1.5645
5.1785,405,1.3065
5.1828,490,1.5806
5.1871,611,1.9710
5.1914,582,1.8774
5.1957,444,1.4323
5.2000,420,1.3548
5.2042,543,1.7516
5.2084,620,2.0000
5.2126,544,1.7548
5.2168,420,1.3548
5.2210,439,1.4161
5.2252,575,1.8548
5.2295,613,1.9774
5.2337,505,1.6290
5.2379,408,1.3161
5.2421,473,1.5258
5.2463,601,1.9387
5.2506,600,1.9355
5.2548,474,1.5290
5.2590,414,1.3355
5.2632,512,1.6516
5.2674,619,1.9968
5.2716,583,1.8806
5.2759,448,1.4452
5.2802,430,1.3871
5.2846,561,1.8097
5.2889,630,2.0323
5.2932,543,1.7516
5.2974,435,1.4032
5.3017,486,1.5677
5.3059,623,2.0097
5.3101,646,2.0839
5.3144,533,1.7194
5.3186,466,1.5032
5.3228,555,1.7903
5.3270,666,2.1484
5.3313,637,2.0548
5.3356,491,1.5839
5.3399,452,1.4581
5.3442,572,1.8452
5.3485,644,2.0774
5.3528,553,1.7839
5.3571,424,1.3677
5.3613,445,1.4355
5.3655,574,1.8516
5.3697,604,1.9484
5.3740,486,1.5677
5.3782,393,1.2677
5.3824,463,1.4935
5.3866,589,1.9000
5.3908,582,1.8774
5.3951,449,1.4484
5.3993,395,1.2742
5.4035,499,1.6097
5.4077,598,1.9290
5.4119,549,1.7710
5.4162,409,1.3194
5.4204,384,1.2387
5.4247,495,1.5968
5.4290,549,1.7710
5.4332,479,1.5452
5.4374,440,1.4194
5.4416,607,1.9581
5.4458,899,2.9000
5.4500,1000,3.2258
5.4542,1002,3.2323
5.4584,1002,3.2323
5.4626,1002,3.2323
5.4668,992,3.2000
5.4710,786,2.5355
5.4752,472,1.5226
5.4795,331,1.0677
5.4837,417,1.3452
5.4879,519,1.6742
5.4922,477,1.5387
5.4965,359,1.1581
5.5008,371,1.1968
5.5051,508,1.6387
5.5093,561,1.8097
5.5135,461,1.4871
5.5177,356,1.1484
5.5219,409,1.3194
5.5261,543,1.7516
5.5303,556,1.7935
5.5345,433,1.3968
5.5387,365,1.1774
5.5429,455,1.4677
5.5471,574,1.8516
5.5513,552,1.7806
5.5555,423,1.3645
5.5598,391,1.2613
5.5640,509,1.6419
5.5681,601,1.9387
5.5724,541,1.7452
5.5766,410,1.3226
5.5808,419,1.3516
5.5850,554,1.7871
5.5892,612,1.9742
5.5934,515,1.6613
5.5977,410,1.3226
5.6020,468,1.5097
5.6062,604,1.9484
5.6105,617,1.9903
5.6147,499,1.6097
5.6190,439,1.4161
5.6232,537,1.7323
5.6274,652,2.1032
5.6316,623,2.0097
5.6358,495,1.5968
5.6401,476,1.5355
5.6442,607,1.9581
5.6484,693,2.2355
5.6526,629,2.0290
5.6568,510,1.6452
5.6611,532,1.7161
5.6653,672,2.1677
5.6694,723,2.3323
5.6736,626,2.0194
5.6778,525,1.6935
5.6821,580,1.8710
5.6863,708,2.2839
5.6905,717,2.3129
5.6947,587,1.8935
5.6989,512,1.6516
5.7032,596,1.9226
5.7074,699,2.2548
5.7120,641,2.0677
5.7163,491,1.5839
5.7205,468,1.5097
5.7247,581,1.8742
5.7289,628,2.0258
5.7332,523,1.6871
5.7374,392,1.2645
5.7416,416,1.3419
5.7458,541,1.7452
5.7500,556,1.7935
5.7542,437,1.4097
5.7584,348,1.1226
5.7626,418,1.3484
5.7668,537,1.7323
5.7710,526,1.6968
5.7752,394,1.2710
5.7794,343,1.1065
5.7836,448,1.4452
5.7878,549,1.7710
5.7920,500,1.6129
5.7962,369,1.1903
5.8005,363,1.1710
5.8047,494,1.5935
5.8089,558,1.8000
5.8131,470,1.5161
5.8173,358,1.1548
5.8215,393,1.2677
5.8258,532,1.7161
5.8300,560,1.8065
5.8342,446,1.4387
5.8384,359,1.1581
5.8426,432,1.3935
5.8468,558,1.8000
5.8510,550,1.7742
5.8552,416,1.3419
5.8595,366,1.1806
5.8637,474,1.5290
5.8679,573,1.8484
5.8721,520,1.6774
5.8763,391,1.2613
5.8805,382,1.2323
5.8848,515,1.6613
5.8891,575,1.8548
5.8934,482,1.5548
5.8976,369,1.1903
5.9018,412,1.3290
5.9061,546,1.7613
5.9104,560,1.8065
5.9147,435,1.4032
5.9190,364,1.1742
5.9233,459,1.4806
5.9277,568,1.8323
5.9321,516,1.6645
5.9364,387,1.2484
5.9408,389,1.2548
5.9453,530,1.7097
5.9497,570,1.8387
5.9541,459,1.4806
5.9584,368,1.1871
5.9626,445,1.4355
5.9669,567,1.8290
5.9712,553,1.7839
5.9754,420,1.3548
5.9797,379,1.2226
5.9840,494,1.5935
5.9883,582,1.8774
5.9926,516,1.6645
5.9969,388,1.2516
6.0012,404,1.3032
6.0054,540,1.7419
6.0098,577,1.8613
6.0141,467,1.5065
6.0184,379,1.2226
6.0226,454,1.4645
6.0268,578,1.8645
6.0311,566,1.8258
6.0355,436,1.4065
6.0397,396,1.2774
6.0440,513,1.6548
6.0483,602,1.9419
6.0525,538,1.7355
6.0568,409,1.3194
6.0610,422,1.3613
6.0653,556,1.7935
6.0696,605,1.9516
6.0739,497,1.6032
6.0781,400,1.2903
6.0824,463,1.4935
6.0867,594,1.9161
6.0910,584,1.8839
6.0953,448,1.4452
6.0997,403,1.3000
6.1042,529,1.7065
6.1088,604,1.9484
6.1132,509,1.6419
6.1177,391,1.2613
6.1221,440,1.4194
6.1265,573,1.8484
6.1309,569,1.8355
6.1352,431,1.3903
6.1397,385,1.2419
6.1441,507,1.6355
6.1484,595,1.9194
6.1528,525,1.6935
6.1571,406,1.3097
6.1615,446,1.4387
6.1659,594,1.9161
6.1702,612,1.9742
6.1746,477,1.5387
6.1790,395,1.2742
6.1842,514,1.6581
6.1886,592,1.9097
6.1930,508,1.6387
6.1974,377,1.2161
6.2017,408,1.3161
6.2061,541,1.7452
6.2104,554,1.7871
6.2148,422,1.3613
6.2191,352,1.1355
6.2235,455,1.4677
6.2279,559,1.8032
6.2322,501,1.6161
6.2367,365,1.1774
6.2410,377,1.2161
6.2454,517,1.6677
6.2498,555,1.7903
6.2542,439,1.4161
6.2586,345,1.1129
6.2633,431,1.3903
6.2677,523,1.6871
6.2721,467,1.5065
6.2764,351,1.1323
6.2808,419,1.3516
6.2852,679,2.1903
6.2896,883,2.8484
6.2940,914,2.9484
6.2984,986,3.1806
6.3028,1002,3.2323
6.3071,1000,3.2258
6.3115,908,2.9290
6.3159,577,1.8613
6.3203,400,1.2903
6.3247,452,1.4581
6.3291,495,1.5968
6.3335,406,1.3097
6.3379,311,1.0032
6.3423,384,1.2387
6.3467,526,1.6968
6.3510,524,1.6903
6.3554,392,1.2645
6.3598,350,1.1290
6.3641,473,1.5258
6.3685,562,1.8129
6.3728,493,1.5903
6.3772,371,1.1968
6.3815,403,1.3000
6.3859,544,1.7548
6.3902,571,1.8419
6.3946,452,1.4581
6.3989,381,1.2290
6.4033,480,1.5484
6.4076,598,1.9290
6.4120,561,1.8097
6.4163,433,1.3968
6.4206,433,1.3968
6.4250,579,1.8677
6.4293,645,2.0806
6.4336,553,1.7839
6.4379,454,1.4645
6.4423,519,1.6742
6.4466,656,2.1161
6.4510,659,2.1258
6.4553,530,1.7097
6.4597,487,1.5710
6.4641,608,1.9613
6.4684,705,2.2742
6.4727,645,2.0806
6.4769,525,1.6935
6.4811,540,1.7419
6.4853,680,2.1935
6.4895,739,2.3839
6.4937,643,2.0742
6.4980,545,1.7581
6.5022,606,1.9548
6.5065,748,2.4129
6.5108,756,2.4387
6.5151,628,2.0258
6.5194,571,1.8419
6.5236,673,2.1710
6.5279,778,2.5097
6.5322,729,2.3516
6.5364,593,1.9129
6.5407,582,1.8774
6.5450,705,2.2742
6.5493,752,2.4258
6.5536,640,2.0645
6.5578,515,1.6613
6.5620,543,1.7516
6.5662,661,2.1323
6.5704,661,2.1323
6.5746,525,1.6935
6.5788,435,1.4032
6.5830,505,1.6290
6.5872,613,1.9774
6.5915,586,1.8903
6.5957,447,1.4419
6.5999,405,1.3065
6.6042,517,1.6677
6.6084,600,1.9355
6.6126,536,1.7290
6.6168,406,1.3097
6.6210,410,1.3226
6.6252,544,1.7548
6.6294,604,1.9484
6.6337,508,1.6387
6.6379,401,1.2935
6.6421,452,1.4581
6.6463,584,1.8839
6.6505,596,1.9226
6.6547,474,1.5290
6.6589,401,1.2935
6.6631,487,1.5710
6.6674,606,1.9548
6.6716,582,1.8774
6.6758,451,1.4548
6.6801,421,1.3581
6.6844,545,1.7581
6.6887,625,2.0161
6.6930,548,1.7677
6.6973,426,1.3742
6.7017,457,1.4742
6.7060,595,1.9194
6.7103,617,1.9903
6.7146,499,1.6097
6.7189,425,1.3710
6.7232,515,1.6613
6.7275,630,2.0323
6.7318,596,1.9226
6.7361,461,1.4871
6.7404,443,1.4290
6.7448,575,1.8548
6.7491,641,2.0677
6.7535,550,1.7742
6.7578,441,1.4226
6.7620,487,1.5710
6.7663,620,2.0000
6.7706,632,2.0387
6.7749,507,1.6355
6.7791,437,1.4097
6.7839,548,1.7677
6.7883,640,2.0645
6.7926,579,1.8677
6.7969,447,1.4419
6.8013,459,1.4806
6.8055,592,1.9097
6.8098,636,2.0516
6.8141,526,1.6968
6.8184,430,1.3871
6.8227,501,1.6161
6.8270,624,2.0129
6.8313,609,1.9645
6.8356,475,1.5323
6.8399,432,1.3935
6.8442,548,1.7677
6.8484,636,2.0516
6.8527,570,1.8387
6.8570,441,1.4226
6.8612,455,1.4677
6.8654,590,1.9032
6.8697,636,2.0516
6.8739,532,1.7161
6.8781,429,1.3839
6.8824,488,1.5742
6.8866,619,1.9968
6.8910,616,1.9871
6.8953,485,1.5645
6.8996,432,1.3935
6.9039,540,1.7419
6.9081,638,2.0581
6.9125,582,1.8774
6.9168,452,1.4581
6.9210,456,1.4710
6.9253,588,1.8968
6.9295,647,2.0871
6.9337,551,1.7774
6.9380,450,1.4516
6.9422,505,1.6290
6.9464,640,2.0645
6.9506,658,2.1226
6.9549,542,1.7484
6.9592,488,1.5742
6.9635,586,1.8903
6.9678,685,2.2097
6.9720,632,2.0387
6.9763,483,1.5581
6.9806,462,1.4903
6.9848,587,1.8935
6.9891,644,2.0774
6.9934,544,1.7548
6.9977,419,1.3516
7.0020,455,1.4677
7.0063,588,1.8968
7.0105,603,1.9452
7.0148,478,1.5419
7.0190,404,1.3032
7.0233,492,1.5871
7.0276,603,1.9452
7.0318,569,1.8355
7.0360,434,1.4000
7.0402,405,1.3065
7.0445,523,1.6871
7.0487,606,1.9548
7.0529,532,1.7161
7.0571,396,1.2774
7.0614,395,1.2742
7.0658,522,1.6839
7.0701,573,1.8484
7.0744,519,1.6742
7.0793,568,1.8323
7.0845,880,2.8387
7.0889,1002,3.2323
7.0932,1003,3.2355
7.0975,1002,3.2323
7.1018,999,3.2226
7.1061,953,3.0742
7.1104,753,2.4290
7.1146,474,1.5290
7.1189,320,1.0323
7.1232,387,1.2484
7.1275,518,1.6710
7.1318,506,1.6323
7.1362,386,1.2452
7.1404,367,1.1839
7.1447,494,1.5935
7.1490,566,1.8258
7.1532,487,1.5710
7.1574,369,1.1903
7.1617,400,1.2903
7.1659,536,1.7290
7.1701,572,1.8452
7.1743,466,1.5032
7.1785,377,1.2161
7.1827,446,1.4387
7.1870,578,1.8645
7.1912,576,1.8581
7.1954,447,1.4419
7.1997,397,1.2806
7.2039,504,1.6258
7.2081,610,1.9677
7.2123,566,1.8258
7.2165,437,1.4097
7.2207,431,1.3903
7.2249,564,1.8194
7.2291,634,2.0452
7.2333,554,1.7871
7.2375,439,1.4161
7.2418,474,1.5290
7.2461,614,1.9806
7.2504,643,2.0742
7.2547,526,1.6968
7.2590,453,1.4613
7.2633,550,1.7742
7.2677,672,2.1677
7.2720,646,2.0839
7.2764,517,1.6677
7.2807,509,1.6419
7.2851,647,2.0871
7.2896,711,2.2935
7.2939,615,1.9839
7.2982,515,1.6613
7.3025,578,1.8645
7.3067,712,2.2968
7.3110,713,2.3000
7.3153,584,1.8839
7.3196,526,1.6968
7.3239,631,2.0355
7.3282,729,2.3516
7.3324,674,2.1742
7.3367,539,1.7387
7.3410,529,1.7065
7.3454,650,2.0968
7.3497,688,2.2194
7.3539,571,1.8419
7.3582,452,1.4581
7.3625,495,1.5968
7.3668,610,1.9677
7.3712,596,1.9226
7.3754,454,1.4645
7.3797,391,1.2613
7.3839,491,1.5839
7.3882,588,1.8968
7.3924,533,1.7194
7.3967,396,1.2774
7.4010,393,1.2677
7.4053,522,1.6839
7.4095,573,1.8484
7.4137,479,1.5452
7.4179,371,1.1968
7.4221,416,1.3419
7.4263,553,1.7839
7.4305,574,1.8516
7.4347,457,1.4742
7.4389,382,1.2323
7.4431,463,1.4935
7.4474,584,1.8839
7.4516,567,1.8290
7.4558,439,1.4161
7.4600,401,1.2935
7.4642,515,1.6613
7.4684,610,1.9677
7.4726,552,1.7806
7.4768,423,1.3645
7.4810,422,1.3613
7.4852,555,1.7903
7.4895,613,1.9774
7.4937,520,1.6774
7.4979,413,1.3323
7.5022,457,1.4742
7.5064,588,1.8968
7.5106,605,1.9516
7.5149,485,1.5645
7.5191,409,1.3194
7.5233,492,1.5871
7.5275,609,1.9645
7.5317,585,1.8871
7.5359,451,1.4548
7.5401,415,1.3387
7.5444,529,1.7065
7.5486,617,1.9903
7.5528,554,1.7871
7.5570,425,1.3710
7.5616,437,1.4097
7.5659,570,1.8387
7.5702,604,1.9484
7.5745,487,1.5710
7.5788,402,1.2968
7.5831,478,1.5419
7.5873,597,1.9258
7.5916,579,1.8677
7.5959,441,1.4226
7.6002,407,1.3129
7.6045,526,1.6968
7.6088,609,1.9645
7.6131,534,1.7226
7.6174,411,1.3258
7.6216,430,1.3871
7.6258,564,1.8194
7.6300,604,1.9484
7.6342,496,1.6000
7.6385,399,1.2871
7.6427,460,1.4839
7.6469,588,1.8968
7.6512,587,1.8935
7.6554,460,1.4839
7.6596,403,1.3000
7.6638,502,1.6194
7.6680,607,1.9581
7.6723,565,1.8226
7.6766,431,1.3903
7.6808,421,1.3581
7.6852,551,1.7774
7.6895,611,1.9710
7.6938,519,1.6742
7.6980,412,1.3290
7.7023,461,1.4871
7.7065,598,1.9290
7.7107,615,1.9839
7.7150,501,1.6161
7.7192,433,1.3968
7.7234,526,1.6968
7.7276,650,2.0968
7.7318,641,2.0677
7.7360,522,1.6839
7.7402,486,1.5677
7.7444,592,1.9097
7.7486,672,2.1677
7.7528,598,1.9290
7.7570,460,1.4839
7.7612,461,1.4871
7.7654,586,1.8903
7.7696,632,2.0387
7.7739,523,1.6871
7.7782,410,1.3226
7.7826,464,1.4968
7.7869,590,1.9032
7.7912,586,1.8903
7.7955,453,1.4613
7.8000,403,1.3000
7.8044,521,1.6806
7.8087,612,1.9742
7.8130,540,1.7419
7.8173,413,1.3323
7.8216,436,1.4065
7.8259,569,1.8355
7.8302,598,1.9290
7.8345,470,1.5161
7.8387,359,1.1581
7.8431,432,1.3935
7.8474,583,1.8806
7.8517,645,2.0806
7.8559,644,2.0774
7.8602,763,2.4613
7.8645,1001,3.2290
7.8688,1003,3.2355
7.8731,1003,3.2355
7.8774,1001,3.2290
7.8817,880,2.8387
7.8860,743,2.3968
7.8903,595,1.9194
7.8946,397,1.2806
7.8989,294,0.9484
7.9032,383,1.2355
7.9075,520,1.6774
7.9118,510,1.6452
7.9160,380,1.2258
7.9203,347,1.1194
7.9245,465,1.5000
7.9288,549,1.7710
7.9330,484,1.5613
7.9373,361,1.1645
7.9416,380,1.2258
7.9458,521,1.6806
7.9501,564,1.8194
7.9543,459,1.4806
7.9585,365,1.1774
7.9627,429,1.3839
7.9670,558,1.8000
7.9712,560,1.8065
7.9754,435,1.4032
7.9796,378,1.2194
7.9844,498,1.6065
7.9887,587,1.8935
7.9930,525,1.6935
7.9973,399,1.2871
8.0017,420,1.3548
8.0059,559,1.8032
8.0102,601,1.9387
8.0144,496,1.6000
8.0186,403,1.3000
8.0229,472,1.5226
8.0271,605,1.9516
8.0313,608,1.9613
8.0355,490,1.5806
8.0397,438,1.4129
8.0439,542,1.7484
8.0481,650,2.0968
8.0524,613,1.9774
8.0566,490,1.5806
8.0609,483,1.5581
8.0652,619,1.9968
8.0697,689,2.2226
8.0740,595,1.9194
8.0782,495,1.5968
8.0825,550,1.7742
8.0868,686,2.2129
8.0911,694,2.2387
8.0954,567,1.8290
8.0997,505,1.6290
8.1039,604,1.9484
8.1082,702,2.2645
8.1124,655,2.1129
8.1166,516,1.6645
8.1209,490,1.5806
8.1251,601,1.9387
8.1294,651,2.1000
8.1338,540,1.7419
8.1381,411,1.3258
8.1425,446,1.4387
8.1468,566,1.8258
8.1510,560,1.8065
8.1553,425,1.3710
8.1596,356,1.1484
8.1638,447,1.4419
8.1680,551,1.7774
8.1722,512,1.6516
8.1764,378,1.2194
8.1806,350,1.1290
8.1849,469,1.5129
8.1891,547,1.7645
8.1933,472,1.5226
8.1975,348,1.1226
8.2019,375,1.2097
8.2061,513,1.6548
8.2104,544,1.7548
8.2147,430,1.3871
8.2190,345,1.1129
8.2233,426,1.3742
8.2276,548,1.7677
8.2319,527,1.7000
8.2361,393,1.2677
8.2404,360,1.1613
8.2447,478,1.5419
8.2489,562,1.8129
8.2531,495,1.5968
8.2573,372,1.2000
8.2615,387,1.2484
8.2658,523,1.6871
8.2700,573,1.8484
8.2741,473,1.5258
8.2783,369,1.1903
8.2825,418,1.3484
8.2867,549,1.7710
8.2910,560,1.8065
8.2953,430,1.3871
8.2997,367,1.1839
8.3040,468,1.5097
8.3084,572,1.8452
8.3129,514,1.6581
8.3173,384,1.2387
8.3218,404,1.3032
8.3262,541,1.7452
8.3307,567,1.8290
8.3352,441,1.4226
8.3397,373,1.2032
8.3440,475,1.5323
8.3484,576,1.8581
8.3528,516,1.6645
8.3572,386,1.2452
8.3616,396,1.2774
8.3659,533,1.7194
8.3703,571,1.8419
8.3747,455,1.4677
8.3791,366,1.1806
8.3834,446,1.4387
8.3878,565,1.8226
8.3922,533,1.7194
8.3966,398,1.2839
8.4009,384,1.2387
8.4052,513,1.6548
8.4096,580,1.8710
8.4140,485,1.5645
8.4183,375,1.2097
8.4227,430,1.3871
8.4271,562,1.8129
8.4315,559,1.8032
8.4358,427,1.3774
8.4402,385,1.2419
8.4446,502,1.6194
8.4490,591,1.9065
8.4533,519,1.6742
8.4577,395,1.2742
8.4621,427,1.3774
8.4664,563,1.8161
8.4708,587,1.8935
8.4751,463,1.4935
8.4796,393,1.2677
8.4840,495,1.5968
8.4884,602,1.9419
8.4927,551,1.7774
8.4971,418,1.3484
8.5015,428,1.3806
8.5059,567,1.8290
8.5104,610,1.9677
8.5148,497,1.6032
8.5192,417,1.3452
8.5236,511,1.6484
8.5279,631,2.0355
8.5323,599,1.9323
8.5367,471,1.5194
8.5411,475,1.5323
8.5455,621,2.0032
8.5498,671,2.1645
8.5542,560,1.8065
8.5586,446,1.4387
8.5630,507,1.6355
8.5674,633,2.0419
8.5718,614,1.9806
8.5762,467,1.5065
8.5805,422,1.3613
8.5854,554,1.7871
8.5898,609,1.9645
8.5943,502,1.6194
8.5987,397,1.2806
8.6031,466,1.5032
8.6074,592,1.9097
8.6117,576,1.8581
8.6163,440,1.4194
8.6207,413,1.3323
8.6251,539,1.7387
8.6295,612,1.9742
8.6339,518,1.6710
8.6383,399,1.2871
8.6426,437,1.4097
8.6470,549,1.7710
8.6514,542,1.7484
8.6557,433,1.3968
8.6600,452,1.4581
8.6644,688,2.2194
8.6687,940,3.0323
8.6730,997,3.2161
8.6774,1000,3.2258
8.6817,1003,3.2355
8.6861,1002,3.2323
8.6904,981,3.1645
8.6948,695,2.2419
8.6991,430,1.3871
8.7034,419,1.3516
8.7077,517,1.6677
8.7121,500,1.6129
8.7164,381,1.2290
8.7208,368,1.1871
8.7251,501,1.6161
8.7295,577,1.8613
8.7338,488,1.5742
8.7382,374,1.2065
8.7425,422,1.3613
8.7469,556,1.7935
8.7512,564,1.8194
8.7556,439,1.4161
8.7599,382,1.2323
8.7642,490,1.5806
8.7686,595,1.9194
8.7730,540,1.7419
8.7773,411,1.3258
8.7816,419,1.3516
8.7859,556,1.7935
8.7901,608,1.9613
8.7944,509,1.6419
8.7987,414,1.3355
8.8030,480,1.5484
8.8072,611,1.9710
8.8115,609,1.9645
8.8158,481,1.5516
8.8201,432,1.3935
8.8244,546,1.7613
8.8287,649,2.0935
8.8329,597,1.9258
8.8372,474,1.5290
8.8415,480,1.5484
8.8457,615,1.9839
8.8499,674,2.1742
8.8541,587,1.8935
8.8583,486,1.5677
8.8625,536,1.7290
8.8668,677,2.1839
8.8711,699,2.2548
8.8753,580,1.8710
8.8801,518,1.6710
8.8848,644,2.0774
8.8892,733,2.3645
8.8934,668,2.1548
8.8977,549,1.7710
8.9019,571,1.8419
8.9062,704,2.2710
8.9104,744,2.4000
8.9147,632,2.0387
8.9189,533,1.7194
8.9233,590,1.9032
8.9276,702,2.2645
8.9320,675,2.1774
8.9363,528,1.7032
8.9406,475,1.5323
8.9449,574,1.8516
8.9491,638,2.0581
8.9534,554,1.7871
8.9577,417,1.3452
8.9620,428,1.3806
8.9662,553,1.7839
8.9704,580,1.8710
8.9747,466,1.5032
8.9789,366,1.1806
8.9831,428,1.3806
8.9873,550,1.7742
8.9916,549,1.7710
8.9958,415,1.3387
9.0000,358,1.1548
9.0042,458,1.4774
9.0085,560,1.8065
9.0127,516,1.6645
9.0170,382,1.2323
9.0212,377,1.2161
9.0255,508,1.6387
9.0298,571,1.8419
9.0341,475,1.5323
9.0384,364,1.1742
9.0427,417,1.3452
9.0470,553,1.7839
9.0514,562,1.8129
9.0557,432,1.3935
9.0600,375,1.2097
9.0643,482,1.5548
9.0686,586,1.8903
9.0729,535,1.7258
9.0772,403,1.3000
9.0815,403,1.3000
9.0857,537,1.7323
9.0900,595,1.9194
9.0943,497,1.6032
9.0986,390,1.2581
9.1029,447,1.4419
9.1072,579,1.8677
9.1115,580,1.8710
9.1166,427,1.3774
9.1210,408,1.3161
9.1254,536,1.7290
9.1296,610,1.9677
9.1339,529,1.7065
9.1381,416,1.3419
9.1423,446,1.4387
9.1465,578,1.8645
9.1507,609,1.9645
9.1549,496,1.6000
9.1592,406,1.3097
9.1634,481,1.5516
9.1676,599,1.9323
9.1718,587,1.8935
9.1761,457,1.4742
9.1803,409,1.3194
9.1845,512,1.6516
9.1887,607,1.9581
9.1929,556,1.7935
9.1972,426,1.3742
9.2014,426,1.3742
9.2056,557,1.7968
9.2099,619,1.9968
9.2141,527,1.7000
9.2185,413,1.3323
9.2228,467,1.5065
9.2271,596,1.9226
9.2313,604,1.9484
9.2355,479,1.5452
9.2398,409,1.3194
9.2440,498,1.6065
9.2482,611,1.9710
9.2525,578,1.8645
9.2568,443,1.4290
9.2611,424,1.3677
9.2654,551,1.7774
9.2697,618,1.9935
9.2744,522,1.6839
9.2787,418,1.3484
9.2830,480,1.5484
9.2873,616,1.9871
9.2915,622,2.0065
9.2958,500,1.6129
9.3001,443,1.4290
9.3043,550,1.7742
9.3085,659,2.1258
9.3128,626,2.0194
9.3170,506,1.6323
9.3212,498,1.6065
9.3254,615,1.9839
9.3297,673,2.1710
9.3339,579,1.8677
9.3382,454,1.4645
9.3425,490,1.5806
9.3468,618,1.9935
9.3511,621,2.0032
9.3554,488,1.5742
9.3597,407,1.3129
9.3640,493,1.5903
9.3683,601,1.9387
9.3726,560,1.8065
9.3769,426,1.3742
9.3812,411,1.3258
9.3855,539,1.7387
9.3899,600,1.9355
9.3941,509,1.6419
9.3985,403,1.3000
9.4028,455,1.4677
9.4071,586,1.8903
9.4113,589,1.9000
9.4160,436,1.4065
9.4202,364,1.1742
9.4245,464,1.4968
9.4287,586,1.8903
9.4329,605,1.9516
9.4372,595,1.9194
9.4414,730,2.3548
9.4456,987,3.1839
9.4498,1004,3.2387
9.4540,1003,3.2355
9.4583,999,3.2226
9.4625,921,2.9710
9.4668,809,2.6097
9.4710,648,2.0903
9.4752,422,1.3613
9.4803,305,0.9839
9.4853,450,1.4516
9.4897,538,1.7355
9.4940,466,1.5032
9.4983,361,1.1645
9.5027,404,1.3032
9.5070,540,1.7419
9.5113,554,1.7871
9.5155,430,1.3871
9.5199,363,1.1710
9.5243,465,1.5000
9.5286,575,1.8548
9.5330,528,1.7032
9.5373,400,1.2903
9.5416,406,1.3097
9.5460,544,1.7548
9.5503,597,1.9258
9.5547,493,1.5903
9.5590,397,1.2806
9.5633,466,1.5032
9.5677,597,1.9258
9.5720,586,1.8903
9.5764,455,1.4677
9.5806,418,1.3484
9.5849,536,1.7290
9.5892,629,2.0290
9.5935,562,1.8129
9.5978,440,1.4194
9.6021,463,1.4935
9.6064,604,1.9484
9.6107,645,2.0806
9.6151,536,1.7290
9.6193,457,1.4742
9.6236,542,1.7484
9.6279,672,2.1677
9.6323,656,2.1161
9.6366,529,1.7065
9.6409,504,1.6258
9.6452,628,2.0258
9.6495,715,2.3065
9.6538,643,2.0742
9.6580,526,1.6968
9.6623,559,1.8032
9.6666,699,2.2548
9.6709,731,2.3581
9.6752,616,1.9871
9.6795,531,1.7129
9.6838,611,1.9710
9.6881,728,2.3484
9.6924,699,2.2548
9.6967,555,1.7903
9.7009,513,1.6548
9.7052,617,1.9903
9.7095,682,2.2000
9.7138,589,1.9000
9.7181,453,1.4613
9.7224,468,1.5097
9.7266,590,1.9032
9.7310,607,1.9581
9.7353,475,1.5323
9.7396,388,1.2516
9.7440,468,1.5097
9.7483,579,1.8677
9.7526,544,1.7548
9.7568,410,1.3226
9.7611,387,1.2484
9.7654,510,1.6452
9.7697,582,1.8774
9.7740,495,1.5968
9.7784,379,1.2226
9.7827,419,1.3516
9.7899,590,1.9032
9.7942,502,1.6194
9.7986,390,1.2581
9.8029,436,1.4065
9.8072,566,1.8258
9.8115,575,1.8548
9.8157,451,1.4548
9.8199,383,1.2355
9.8242,475,1.5323
9.8285,584,1.8839
9.8328,541,1.7452
9.8371,407,1.3129
9.8414,396,1.2774
9.8457,525,1.6935
9.8500,591,1.9065
9.8542,506,1.6323
9.8584,393,1.2677
9.8626,428,1.3806
9.8669,557,1.7968
9.8712,579,1.8677
9.8755,457,1.4742
9.8798,387,1.2484
9.8841,477,1.5387
9.8884,590,1.9032
9.8926,555,1.7903
9.8969,422,1.3613
9.9011,399,1.2871
9.9053,521,1.6806
9.9096,597,1.9258
9.9138,521,1.6806
9.9180,400,1.2903
9.9222,420,1.3548
9.9264,552,1.7806
9.9307,591,1.9065
9.9349,484,1.5613
9.9391,391,1.2613
9.9433,452,1.4581
9.9475,580,1.8710
9.9517,583,1.8806
9.9560,455,1.4677
9.9603,400,1.2903
9.9646,506,1.6323
9.9689,605,1.9516
9.9733,549,1.7710
9.9775,418,1.3484
9.9819,424,1.3677
9.9862,560,1.8065
9.9905,612,1.9742
9.9948,508,1.6387
9.9990,410,1.3226
10.0037,487,1.5710
10.0210,423,1.3645
10.0254,550,1.7742
10.0322,592,1.9097
10.0368,454,1.4645
10.0413,428,1.3806
10.0457,557,1.7968
10.0500,625,2.0161
10.0544,531,1.7129
10.0589,423,1.3645
10.0633,493,1.5903
10.0678,630,2.0323
10.0721,625,2.0161
10.0765,498,1.6065
10.0809,465,1.5000
10.0853,598,1.9290
10.0897,695,2.2419
10.0941,623,2.0097
10.0985,508,1.6387
10.1029,547,1.7645
10.1073,671,2.1645
10.1116,671,2.1645
10.1159,535,1.7258
10.1203,471,1.5194
10.1247,571,1.8419
10.1290,662,2.1355
10.1334,597,1.9258
10.1377,460,1.4839
10.1421,466,1.5032
10.1465,601,1.9387
10.1509,637,2.0548
10.1552,517,1.6677
10.1597,432,1.3935
10.1640,520,1.6774
10.1684,629,2.0290
10.1727,590,1.9032
10.1771,444,1.4323
10.1815,424,1.3677
10.1859,552,1.7806
10.1903,603,1.9452
10.1946,489,1.5774
10.1989,366,1.1806
10.2033,427,1.3774
10.2077,591,1.9065
10.2120,670,2.1613
10.2164,674,2.1742
10.2208,793,2.5581
10.2252,1000,3.2258
10.2296,1004,3.2387
10.2340,1003,3.2355
10.2384,1001,3.2290
10.2428,996,3.2129
10.2471,958,3.0903
10.2515,793,2.5581
10.2559,576,1.8581
10.2602,491,1.5839
10.2647,610,1.9677
10.2690,726,2.3419
10.2734,677,2.1839
10.2778,542,1.7484
10.2821,551,1.7774
10.2865,688,2.2194
10.2909,723,2.3323
10.2953,604,1.9484
10.2997,516,1.6645
10.3041,603,1.9452
10.3084,718,2.3161
10.3128,684,2.2065
10.3171,546,1.7613
10.3215,524,1.6903
10.3259,652,2.1032
10.3302,714,2.3032
10.3346,615,1.9839
10.3390,505,1.6290
10.3433,560,1.8065
10.3477,690,2.2258
10.3521,685,2.2097
10.3565,553,1.7839
10.3609,511,1.6484
10.3653,631,2.0355
10.3697,715,2.3065
10.3740,637,2.0548
10.3784,515,1.6613
10.3828,552,1.7806
10.3904,715,2.3065
10.3947,621,2.0032
10.3991,520,1.6774
10.4035,588,1.8968
10.4079,723,2.3323
10.4123,714,2.3032
10.4166,585,1.8871
10.4209,554,1.7871
10.4252,679,2.1903
10.4296,769,2.4806
10.4340,692,2.2323
10.4383,573,1.8484
10.4427,609,1.9645
10.4471,751,2.4226
10.4514,771,2.4871
10.4558,647,2.0871
10.4601,574,1.8516
10.4645,670,2.1613
10.4688,774,2.4968
10.4732,719,2.3194
10.4775,571,1.8419
10.4819,555,1.7903
10.4862,673,2.1710
10.4905,705,2.2742
10.4950,575,1.8548
10.4993,461,1.4871
10.5036,515,1.6613
10.5080,629,2.0290
10.5123,602,1.9419
10.5166,457,1.4742
10.5210,411,1.3258
10.5253,521,1.6806
10.5297,597,1.9258
10.5340,517,1.6677
10.5384,393,1.2677
10.5427,423,1.3645
10.5471,557,1.7968
10.5514,580,1.8710
10.5558,459,1.4806
10.5601,389,1.2548
10.5644,484,1.5613
10.5687,593,1.9129
10.5730,554,1.7871
10.5773,423,1.3645
10.5816,410,1.3226
10.5858,536,1.7290
10.5900,602,1.9419
10.5943,518,1.6710
10.5985,403,1.3000
10.6027,436,1.4065
10.6069,568,1.8323
10.6112,596,1.9226
10.6154,486,1.5677
10.6196,404,1.3032
10.6238,479,1.5452
10.6281,600,1.9355
10.6324,584,1.8839
10.6366,456,1.4710
10.6408,416,1.3419
10.6450,525,1.6935
10.6493,615,1.9839
10.6536,554,1.7871
10.6578,431,1.3903
10.6620,436,1.4065
10.6662,562,1.8129
10.6704,614,1.9806
10.6747,521,1.6806
10.6789,416,1.3419
10.6831,463,1.4935
10.6902,615,1.9839
10.6945,530,1.7097
10.6987,419,1.3516
10.7029,457,1.4742
10.7071,586,1.8903
10.7114,603,1.9452
10.7156,484,1.5613
10.7198,406,1.3097
10.7241,487,1.5710
10.7283,600,1.9355
10.7326,577,1.8613
10.7368,447,1.4419
10.7410,409,1.3194
10.7452,521,1.6806
10.7494,607,1.9581
10.7536,547,1.7645
10.7578,421,1.3581
10.7620,425,1.3710
10.7662,553,1.7839
10.7705,605,1.9516
10.7747,507,1.6355
10.7789,400,1.2903
10.7832,443,1.4290
10.7874,571,1.8419
10.7916,582,1.8774
10.7958,460,1.4839
10.8001,388,1.2516
10.8043,475,1.5323
10.8085,585,1.8871
10.8127,554,1.7871
10.8170,423,1.3645
10.8212,394,1.2710
10.8255,512,1.6516
10.8297,589,1.9000
10.8339,520,1.6774
10.8382,397,1.2806
10.8424,412,1.3290
10.8466,539,1.7387
10.8509,579,1.8677
10.8551,472,1.5226
10.8593,378,1.2194
10.8635,434,1.4000
10.8677,554,1.7871
10.8719,553,1.7839
10.8762,426,1.3742
10.8804,366,1.1806
10.8847,474,1.5290
10.8892,574,1.8516
10.8935,522,1.6839
10.8977,400,1.2903
10.9019,407,1.3129
10.9061,538,1.7355
10.9103,600,1.9355
10.9145,517,1.6677
10.9187,417,1.3452
10.9230,469,1.5129
10.9272,600,1.9355
10.9314,613,1.9774
10.9356,489,1.5774
10.9399,397,1.2806
10.9441,469,1.5129
10.9483,581,1.8742
10.9525,554,1.7871
10.9567,415,1.3387
10.9610,362,1.1677
10.9652,468,1.5097
10.9695,551,1.7774
10.9737,483,1.5581
10.9779,352,1.1355
10.9821,355,1.1452
10.9863,486,1.5677
10.9905,537,1.7323
10.9949,437,1.4097
10.9991,334,1.0774
11.0033,382,1.2323
11.0075,510,1.6452
11.0117,518,1.6710
11.0159,391,1.2613
11.0202,312,1.0065
11.0244,392,1.2645
11.0287,485,1.5645
11.0330,436,1.4065
11.0373,317,1.0226
11.0417,373,1.2032
11.0461,638,2.0581
11.0504,860,2.7742
11.0547,927,2.9903
11.0590,994,3.2065
11.0633,1001,3.2290
11.0675,997,3.2161
11.0719,852,2.7484
11.0762,504,1.6258
11.0806,291,0.9387
11.0849,333,1.0742
11.0891,425,1.3710
11.0934,386,1.2452
11.0977,267,0.8613
11.1020,273,0.8806
11.1063,409,1.3194
11.1106,467,1.5065
11.1148,369,1.1903
11.1191,262,0.8452
11.1233,315,1.0161
11.1275,450,1.4516
11.1318,466,1.5032
11.1360,348,1.1226
11.1402,279,0.9000
11.1444,371,1.1968
11.1486,487,1.5710
11.1528,464,1.4968
11.1570,334,1.0774
11.1612,303,0.9774
11.1654,424,1.3677
11.1696,515,1.6613
11.1738,455,1.4677
11.1780,333,1.0742
11.1823,346,1.1161
11.1865,483,1.5581
11.1907,540,1.7419
11.1949,444,1.4323
11.1991,344,1.1097
11.2034,402,1.2968
11.2076,540,1.7419
11.2119,555,1.7903
11.2161,432,1.3935
11.2204,371,1.1968
11.2247,474,1.5290
11.2291,587,1.8935
11.2339,531,1.7129
11.2382,410,1.3226
11.2425,436,1.4065
11.2468,581,1.8742
11.2512,627,2.0226
11.2555,519,1.6742
11.2598,438,1.4129
11.2641,522,1.6839
11.2684,651,2.1000
11.2727,637,2.0548
11.2770,505,1.6290
11.2813,474,1.5290
11.2861,612,1.9742
11.2905,674,2.1742
11.2947,583,1.8806
11.2990,471,1.5194
11.3032,510,1.6452
11.3074,634,2.0452
11.3116,640,2.0645
11.3159,503,1.6226
11.3201,409,1.3194
11.3244,480,1.5484
11.3286,581,1.8742
11.3329,540,1.7419
11.3370,397,1.2806
11.3412,353,1.1387
11.3454,461,1.4871
11.3497,540,1.7419
11.3540,465,1.5000
11.3582,334,1.0774
11.3625,345,1.1129
11.3668,478,1.5419
11.3711,510,1.6452
11.3754,397,1.2806
11.3797,307,0.9903
11.3840,382,1.2323
11.3883,508,1.6387
11.3926,489,1.5774
11.3969,353,1.1387
11.4012,312,1.0065
11.4055,432,1.3935
11.4099,519,1.6742
11.4142,441,1.4226
11.4185,321,1.0355
11.4228,348,1.1226
11.4271,486,1.5677
11.4313,517,1.6677
11.4356,403,1.3000
11.4398,319,1.0290
11.4441,397,1.2806
11.4484,522,1.6839
11.4527,503,1.6226
11.4569,369,1.1903
11.4612,333,1.0742
11.4654,452,1.4581
11.4696,543,1.7516
11.4739,477,1.5387
11.4781,350,1.1290
11.4823,357,1.1516
11.4865,488,1.5742
11.4908,541,1.7452
11.4950,441,1.4226
11.4992,336,1.0839
11.5035,388,1.2516
11.5077,521,1.6806
11.5119,533,1.7194
11.5161,409,1.3194
11.5204,342,1.1032
11.5247,440,1.4194
11.5289,554,1.7871
11.5332,517,1.6677
11.5374,384,1.2387
11.5416,366,1.1806
11.5459,493,1.5903
11.5502,571,1.8419
11.5544,489,1.5774
11.5588,370,1.1935
11.5631,410,1.3226
11.5674,551,1.7774
11.5718,569,1.8355
11.5761,444,1.4323
11.5804,378,1.2194
11.5863,520,1.6774
11.5906,581,1.8742
11.5949,485,1.5645
11.5992,379,1.2226
11.6034,429,1.3839
11.6076,565,1.8226
11.6118,576,1.8581
11.6161,453,1.4613
11.6203,380,1.2258
11.6245,471,1.5194
11.6287,590,1.9032
11.6330,563,1.8161
11.6372,429,1.3839
11.6415,403,1.3000
11.6458,525,1.6935
11.6501,604,1.9484
11.6544,525,1.6935
11.6587,404,1.3032
11.6629,433,1.3968
11.6671,571,1.8419
11.6714,606,1.9548
11.6758,489,1.5774
11.6801,409,1.3194
11.6845,495,1.5968
11.6888,613,1.9774
11.6931,582,1.8774
11.6974,448,1.4452
11.7017,430,1.3871
11.7060,559,1.8032
11.7103,630,2.0323
11.7147,540,1.7419
11.7189,419,1.3516
11.7232,458,1.4774
11.7275,593,1.9129
11.7318,610,1.9677
11.7361,488,1.5742
11.7404,414,1.3355
11.7447,513,1.6548
11.7490,628,2.0258
11.7532,598,1.9290
11.7574,465,1.5000
11.7616,446,1.4387
11.7658,580,1.8710
11.7700,672,2.1677
11.7742,605,1.9516
11.7784,476,1.5355
11.7826,484,1.5613
11.7869,611,1.9710
11.7911,653,2.1065
11.7953,545,1.7581
11.7996,442,1.4258
11.8038,496,1.6000
11.8080,619,1.9968
11.8123,617,1.9903
11.8165,487,1.5710
11.8207,426,1.3742
11.8250,523,1.6871
11.8292,628,2.0258
11.8334,586,1.8903
11.8377,455,1.4677
11.8420,441,1.4226
11.8462,567,1.8290
11.8505,630,2.0323
11.8548,537,1.7323
11.8591,421,1.3581
11.8634,462,1.4903
11.8678,581,1.8742
11.8721,568,1.8323
11.8764,431,1.3903
11.8807,389,1.2548
11.8850,555,1.7903
11.8893,780,2.5161
11.8936,877,2.8290
11.8979,876,2.8258
11.9022,999,3.2226
11.9065,1003,3.2355
11.9108,1003,3.2355
11.9150,961,3.1000
11.9193,681,2.1968
11.9236,537,1.7323
11.9279,556,1.7935
11.9321,519,1.6742
11.9364,395,1.2742
11.9407,348,1.1226
11.9451,467,1.5065
11.9495,575,1.8548
11.9537,528,1.7032
11.9579,400,1.2903
11.9622,397,1.2806
11.9664,523,1.6871
11.9706,582,1.8774
11.9749,495,1.5968
11.9791,386,1.2452
11.9834,431,1.3903
11.9876,562,1.8129
11.9918,580,1.8710
11.9960,462,1.4903
12.0002,389,1.2548
12.0045,473,1.5258
12.0087,592,1.9097
12.0129,576,1.8581
12.0172,451,1.4548
12.0214,417,1.3452
12.0256,532,1.7161
12.0299,617,1.9903
12.0341,559,1.8032
12.0383,438,1.4129
12.0425,447,1.4419
12.0468,578,1.8645
12.0510,628,2.0258
12.0552,536,1.7290
12.0593,439,1.4161
12.0635,493,1.5903
12.0678,627,2.0226
12.0720,647,2.0871
12.0762,536,1.7290
12.0804,472,1.5226
12.0847,563,1.8161
12.0890,678,2.1871
12.0933,653,2.1065
12.0976,525,1.6935
12.1019,511,1.6484
12.1062,637,2.0548
12.1105,710,2.2903
12.1148,628,2.0258
12.1191,520,1.6774
12.1234,565,1.8226
12.1277,694,2.2387
12.1321,707,2.2806
12.1364,581,1.8742
12.1407,513,1.6548
12.1450,601,1.9387
12.1493,695,2.2419
12.1536,644,2.0774
12.1579,503,1.6226
12.1622,483,1.5581
12.1665,595,1.9194
12.1707,645,2.0806
12.1751,543,1.7516
12.1794,431,1.3903
12.1837,476,1.5355
12.1907,600,1.9355
12.1950,506,1.6323
12.1992,397,1.2806
12.2034,436,1.4065
12.2077,561,1.8097
12.2119,573,1.8484
12.2161,456,1.4710
12.2203,379,1.2226
12.2246,447,1.4419
12.2288,547,1.7645
12.2330,519,1.6742
12.2372,400,1.2903
12.2415,380,1.2258
12.2457,505,1.6290
12.2499,602,1.9419
12.2541,550,1.7742
12.2583,433,1.3968
12.2625,438,1.4129
12.2667,562,1.8129
12.2709,615,1.9839
12.2751,525,1.6935
12.2793,421,1.3581
12.2835,460,1.4839
12.2877,581,1.8742
12.2920,595,1.9194
12.2962,479,1.5452
12.3004,404,1.3032
12.3046,484,1.5613
12.3088,599,1.9323
12.3131,588,1.8968
12.3174,467,1.5065
12.3216,436,1.4065
12.3260,549,1.7710
12.3303,623,2.0097
12.3347,545,1.7581
12.3390,433,1.3968
12.3434,469,1.5129
12.3477,594,1.9161
12.3519,609,1.9645
12.3562,495,1.5968
12.3605,428,1.3806
12.3648,513,1.6548
12.3691,619,1.9968
12.3734,586,1.8903
12.3776,457,1.4742
12.3818,432,1.3935
12.3860,543,1.7516
12.3903,617,1.9903
12.3945,547,1.7645
12.3987,432,1.3935
12.4030,452,1.4581
12.4072,576,1.8581
12.4115,608,1.9613
12.4157,507,1.6355
12.4200,424,1.3677
12.4242,488,1.5742
12.4285,607,1.9581
12.4328,600,1.9355
12.4370,480,1.5484
12.4414,440,1.4194
12.4457,549,1.7710
12.4500,633,2.0419
12.4543,571,1.8419
12.4586,455,1.4677
12.4629,473,1.5258
12.4673,592,1.9097
12.4716,621,2.0032
12.4759,513,1.6548
12.4803,437,1.4097
12.4870,591,1.9065
12.4914,633,2.0419
12.4957,533,1.7194
12.5000,450,1.4516
12.5043,514,1.6581
12.5085,623,2.0097
12.5128,612,1.9742
12.5171,492,1.5871
12.5215,464,1.4968
12.5259,582,1.8774
12.5302,660,2.1290
12.5346,590,1.9032
12.5391,484,1.5613
12.5435,527,1.7000
12.5480,662,2.1355
12.5524,681,2.1968
12.5569,571,1.8419
12.5614,527,1.7000
12.5658,622,2.0065
12.5702,691,2.2290
12.5745,608,1.9613
12.5789,489,1.5774
12.5833,513,1.6548
12.5876,632,2.0387
12.5919,644,2.0774
12.5963,520,1.6774
12.6007,449,1.4484
12.6051,536,1.7290
12.6095,630,2.0323
12.6139,581,1.8742
12.6183,459,1.4806
12.6226,465,1.5000
12.6270,591,1.9065
12.6313,628,2.0258
12.6357,524,1.6903
12.6400,437,1.4097
12.6444,504,1.6258
12.6487,617,1.9903
12.6531,585,1.8871
12.6575,440,1.4194
12.6618,401,1.2935
12.6662,529,1.7065
12.6706,649,2.0935
12.6750,676,2.1806
12.6793,722,2.3290
12.6837,918,2.9613
12.6881,1003,3.2355
12.6924,1002,3.2323
12.6967,1004,3.2387
12.7011,980,3.1613
12.7055,834,2.6903
12.7099,693,2.2355
12.7142,512,1.6516
12.7186,352,1.1355
12.7229,372,1.2000
12.7273,521,1.6806
12.7316,568,1.8323
12.7360,469,1.5129
12.7403,390,1.2581
12.7447,469,1.5129
12.7491,578,1.8645
12.7535,546,1.7613
12.7579,419,1.3516
12.7623,405,1.3065
12.7667,531,1.7129
12.7711,588,1.8968
12.7755,499,1.6097
12.7798,409,1.3194
12.7842,473,1.5258
12.7886,596,1.9226
12.7930,586,1.8903
12.7974,459,1.4806
12.8018,430,1.3871
12.8061,545,1.7581
12.8105,619,1.9968
12.8149,544,1.7548
12.8193,437,1.4097
12.8237,486,1.5677
12.8280,613,1.9774
12.8324,622,2.0065
12.8368,504,1.6258
12.8412,455,1.4677
12.8455,563,1.8161
12.8499,659,2.1258
12.8543,609,1.9645
12.8587,490,1.5806
12.8630,510,1.6452
12.8673,641,2.0677
12.8717,673,2.1710
12.8760,569,1.8355
12.8804,494,1.5935
12.8848,580,1.8710
12.8892,695,2.2419
12.8936,669,2.1581
12.8980,541,1.7452
12.9024,535,1.7258
12.9067,661,2.1323
12.9112,719,2.3194
12.9156,620,2.0000
12.9200,523,1.6871
12.9243,583,1.8806
12.9287,694,2.2387
12.9331,672,2.1677
12.9375,535,1.7258
12.9418,490,1.5806
12.9461,588,1.8968
12.9505,644,2.0774
12.9549,546,1.7613
12.9593,417,1.3452
12.9637,442,1.4258
12.9681,559,1.8032
12.9725,555,1.7903
12.9768,420,1.3548
12.9811,355,1.1452
12.9855,447,1.4419
12.9898,535,1.7258
12.9942,476,1.5355
12.9985,352,1.1355
13.0033,367,1.1839
13.0076,493,1.5903
13.0120,516,1.6645
13.0163,401,1.2935
13.0207,330,1.0645
13.0250,416,1.3419
13.0294,521,1.6806
13.0337,483,1.5581
13.0381,357,1.1516
13.0424,348,1.1226
13.0467,470,1.5161
13.0511,525,1.6935
13.0554,433,1.3968
13.0597,336,1.0839
13.0641,388,1.2516
13.0684,512,1.6516
13.0728,512,1.6516
13.0771,390,1.2581
13.0817,356,1.1484
13.0874,504,1.6258
13.0918,536,1.7290
13.0962,430,1.3871
13.1005,353,1.1387
13.1049,434,1.4000
13.1092,547,1.7645
13.1136,514,1.6581
13.1179,388,1.2516
13.1222,372,1.2000
13.1266,494,1.5935
13.1309,551,1.7774
13.1352,461,1.4871
13.1396,359,1.1581
13.1439,405,1.3065
13.1483,528,1.7032
13.1526,529,1.7065
13.1570,406,1.3097
13.1613,355,1.1452
13.1656,452,1.4581
13.1699,541,1.7452
13.1742,487,1.5710
13.1785,365,1.1774
13.1828,369,1.1903
13.1870,495,1.5968
13.1913,543,1.7516
13.1956,447,1.4419
13.1999,351,1.1323
13.2041,406,1.3097
13.2084,530,1.7097
13.2127,532,1.7161
13.2170,412,1.3290
13.2212,358,1.1548
13.2255,455,1.4677
13.2298,552,1.7806
13.2341,502,1.6194
13.2384,381,1.2290
13.2427,380,1.2258
13.2470,505,1.6290
13.2513,553,1.7839
13.2556,459,1.4806
13.2599,362,1.1677
13.2641,414,1.3355
13.2684,536,1.7290
13.2726,540,1.7419
13.2769,420,1.3548
13.2812,361,1.1645
13.2854,451,1.4548
13.2897,549,1.7710
13.2940,504,1.6258
13.2983,377,1.2161
13.3026,372,1.2000
13.3069,497,1.6032
13.3112,552,1.7806
13.3155,461,1.4871
13.3197,361,1.1645
13.3240,407,1.3129
13.3282,534,1.7226
13.3326,543,1.7516
13.3369,423,1.3645
13.3411,365,1.1774
13.3454,459,1.4806
13.3496,560,1.8065
13.3539,524,1.6903
13.3582,402,1.2968
13.3624,392,1.2645
13.3667,519,1.6742
13.3709,588,1.8968
13.3751,513,1.6548
13.3793,408,1.3161
13.3836,445,1.4355
13.3879,583,1.8806
13.3922,612,1.9742
13.3965,495,1.5968
13.4008,413,1.3323
13.4050,484,1.5613
13.4092,583,1.8806
13.4134,556,1.7935
13.4177,428,1.3806
13.4219,390,1.2581
13.4262,495,1.5968
13.4307,567,1.8290
13.4350,490,1.5806
13.4393,376,1.2129
13.4436,404,1.3032
13.4479,531,1.7129
13.4522,551,1.7774
13.4565,438,1.4129
13.4608,363,1.1710
13.4650,445,1.4355
13.4693,554,1.7871
13.4736,526,1.6968
13.4779,397,1.2806
13.4822,373,1.2032
13.4865,481,1.5516
13.4908,530,1.7097
13.4951,431,1.3903
13.4994,317,1.0226
13.5037,384,1.2387
13.5079,599,1.9323
13.5122,764,2.4645
13.5165,811,2.6161
13.5207,902,2.9097
13.5250,1002,3.2323
13.5293,1002,3.2323
13.5336,998,3.2194
13.5380,781,2.5194
13.5423,519,1.6742
13.5466,476,1.5355
13.5509,479,1.5452
13.5551,388,1.2516
13.5595,287,0.9258
13.5638,336,1.0839
13.5681,475,1.5323
13.5723,499,1.6097
13.5766,383,1.2355
13.5809,311,1.0032
13.5852,400,1.2903
13.5896,507,1.6355
13.5939,470,1.5161
13.5982,342,1.1032
13.6025,329,1.0613
13.6068,453,1.4613
13.6112,519,1.6742
13.6155,431,1.3903
13.6199,333,1.0742
13.6242,385,1.2419
13.6285,514,1.6581
13.6327,519,1.6742
13.6370,398,1.2839
13.6413,342,1.1032
13.6456,441,1.4226
13.6499,545,1.7581
13.6542,507,1.6355
13.6585,386,1.2452
13.6628,388,1.2516
13.6671,518,1.6710
13.6714,577,1.8613
13.6756,489,1.5774
13.6799,391,1.2613
13.6842,447,1.4419
13.6884,580,1.8710
13.6927,592,1.9097
13.6970,477,1.5387
13.7013,425,1.3710
13.7056,531,1.7129
13.7099,641,2.0677
13.7142,604,1.9484
13.7185,490,1.5806
13.7228,498,1.6065
13.7271,632,2.0387
13.7314,691,2.2290
13.7357,601,1.9387
13.7400,507,1.6355
13.7443,564,1.8194
13.7486,693,2.2355
13.7529,697,2.2484
13.7572,574,1.8516
13.7614,518,1.6710
13.7656,611,1.9710
13.7698,703,2.2677
13.7740,654,2.1097
13.7783,514,1.6581
13.7826,485,1.5645
13.7868,594,1.9161
13.7911,638,2.0581
13.7954,531,1.7129
13.7997,403,1.3000
13.8040,432,1.3935
13.8083,549,1.7710
13.8125,552,1.7806
13.8167,426,1.3742
13.8209,347,1.1194
13.8251,425,1.3710
13.8293,534,1.7226
13.8336,507,1.6355
13.8378,379,1.2226
13.8420,346,1.1161
13.8462,457,1.4742
13.8504,540,1.7419
13.8547,479,1.5452
13.8589,359,1.1581
13.8631,371,1.1968
13.8673,501,1.6161
13.8715,550,1.7742
13.8758,453,1.4613
13.8800,353,1.1387
13.8842,401,1.2935
13.8884,530,1.7097
13.8926,543,1.7516
13.8968,423,1.3645
13.9011,358,1.1548
13.9053,449,1.4484
13.9095,562,1.8129
13.9138,531,1.7129
13.9181,402,1.2968
13.9223,378,1.2194
13.9265,496,1.6000
13.9307,573,1.8484
13.9349,496,1.6000
13.9392,377,1.2161
13.9434,399,1.2871
13.9476,529,1.7065
13.9518,568,1.8323
13.9561,461,1.4871
13.9603,366,1.1806
13.9645,431,1.3903
13.9687,558,1.8000
13.9729,558,1.8000
13.9771,432,1.3935
13.9814,370,1.1935
13.9873,518,1.6710
13.9916,568,1.8323
13.9959,467,1.5065
14.0001,368,1.1871
14.0045,429,1.3839
14.0088,554,1.7871
14.0131,551,1.7774
14.0173,423,1.3645
14.0215,366,1.1806
14.0258,469,1.5129
14.0300,569,1.8355
14.0342,521,1.6806
14.0385,389,1.2548
14.0428,387,1.2484
14.0471,519,1.6742
14.0514,578,1.8645
14.0556,484,1.5613
14.0599,377,1.2161
14.0642,428,1.3806
14.0685,558,1.8000
14.0728,567,1.8290
14.0771,440,1.4194
14.0814,379,1.2226
14.0857,478,1.5419
14.0899,582,1.8774
14.0941,539,1.7387
14.0984,409,1.3194
14.1027,401,1.2935
14.1070,533,1.7194
14.1113,596,1.9226
14.1155,507,1.6355
14.1199,395,1.2742
14.1241,441,1.4226
14.1284,573,1.8484
14.1327,586,1.8903
14.1370,462,1.4903
14.1413,398,1.2839
14.1456,495,1.5968
14.1498,599,1.9323
14.1541,557,1.7968
14.1584,425,1.3710
14.1627,412,1.3290
14.1669,538,1.7355
14.1712,604,1.9484
14.1755,519,1.6742
14.1797,404,1.3032
14.1840,445,1.4355
14.1883,579,1.8677
14.1926,592,1.9097
14.1969,470,1.5161
14.2012,403,1.3000
14.2055,500,1.6129
14.2099,610,1.9677
14.2143,563,1.8161
14.2186,430,1.3871
14.2228,423,1.3645
14.2271,553,1.7839
14.2314,614,1.9806
14.2356,524,1.6903
14.2399,422,1.3613
14.2442,474,1.5290
14.2484,607,1.9581
14.2527,625,2.0161
14.2570,510,1.6452
14.2612,454,1.4645
14.2655,551,1.7774
14.2697,654,2.1097
14.2740,610,1.9677
14.2783,465,1.5000
14.2827,445,1.4355
14.2877,592,1.9097
14.2921,623,2.0097
14.2964,501,1.6161
14.3007,401,1.2935
14.3049,469,1.5129
14.3092,588,1.8968
14.3135,569,1.8355
14.3178,435,1.4032
14.3220,394,1.2710
14.3263,508,1.6387
14.3306,594,1.9161
14.3349,525,1.6935
14.3391,397,1.2806
14.3434,409,1.3194
14.3477,542,1.7484
14.3521,581,1.8742
14.3563,466,1.5032
14.3606,363,1.1710
14.3649,414,1.3355
14.3692,527,1.7000
14.3735,525,1.6935
14.3778,457,1.4742
14.3820,537,1.7323
14.3863,804,2.5935
14.3906,1000,3.2258
14.3948,1000,3.2258
14.3991,1003,3.2355
14.4034,1002,3.2323
14.4077,993,3.2032
14.4120,813,2.6226
14.4163,516,1.6645
14.4205,322,1.0387
14.4248,362,1.1677
14.4291,495,1.5968
14.4333,501,1.6161
14.4376,379,1.2226
14.4419,339,1.0935
14.4462,455,1.4677
14.4505,552,1.7806
14.4547,493,1.5903
14.4590,366,1.1806
14.4632,375,1.2097
14.4675,508,1.6387
14.4717,563,1.8161
14.4759,469,1.5129
14.4801,367,1.1839
14.4843,417,1.3452
14.4885,554,1.7871
14.4928,570,1.8387
14.4970,448,1.4452
14.5014,380,1.2258
14.5056,477,1.5387
14.5099,591,1.9065
14.5142,555,1.7903
14.5185,424,1.3677
14.5229,419,1.3516
14.5273,557,1.7968
14.5317,620,2.0000
14.5360,522,1.6839
14.5403,422,1.3613
14.5446,486,1.5677
14.5489,623,2.0097
14.5533,621,2.0032
14.5576,497,1.6032
14.5619,455,1.4677
14.5661,568,1.8323
14.5704,668,2.1548
14.5747,618,1.9935
14.5790,492,1.5871
14.5832,503,1.6226
14.5875,643,2.0742
14.5918,699,2.2548
14.5961,602,1.9419
14.6004,507,1.6355
14.6046,571,1.8419
14.6089,706,2.2774
14.6132,710,2.2903
14.6174,586,1.8903
14.6216,529,1.7065
14.6258,629,2.0290
14.6300,732,2.3613
14.6342,688,2.2194
14.6384,552,1.7806
14.6427,526,1.6968
14.6468,636,2.0516
14.6510,698,2.2516
14.6553,604,1.9484
14.6595,470,1.5161
14.6637,479,1.5452
14.6679,599,1.9323
14.6721,623,2.0097
14.6764,503,1.6226
14.6806,400,1.2903
14.6848,453,1.4613
14.6890,570,1.8387
14.6932,559,1.8032
14.6974,424,1.3677
14.7017,362,1.1677
14.7059,457,1.4742
14.7101,558,1.8000
14.7144,512,1.6516
14.7186,380,1.2258
14.7228,365,1.1774
14.7270,488,1.5742
14.7312,558,1.8000
14.7354,477,1.5387
14.7396,358,1.1548
14.7439,388,1.2516
14.7481,526,1.6968
14.7523,560,1.8065
14.7565,451,1.4548
14.7657,459,1.4806
14.7701,565,1.8226
14.7744,521,1.6806
14.7787,387,1.2484
14.7830,382,1.2323
14.7872,512,1.6516
14.7915,570,1.8387
14.7958,475,1.5323
14.8002,368,1.1871
14.8046,428,1.3806
14.8090,561,1.8097
14.8133,561,1.8097
14.8176,431,1.3903
14.8218,378,1.2194
14.8261,486,1.5677
14.8304,585,1.8871
14.8347,530,1.7097
14.8390,399,1.2871
14.8432,401,1.2935
14.8475,535,1.7258
14.8518,586,1.8903
14.8562,479,1.5452
14.8605,376,1.2129
14.8648,439,1.4161
14.8691,567,1.8290
14.8734,561,1.8097
14.8777,428,1.3806
14.8820,381,1.2290
14.8879,541,1.7452
14.8922,577,1.8613
14.8965,463,1.4935
14.9009,375,1.2097
14.9052,454,1.4645
14.9094,579,1.8677
14.9137,563,1.8161
14.9179,430,1.3871
14.9221,387,1.2484
14.9263,497,1.6032
14.9305,591,1.9065
14.9347,535,1.7258
14.9390,407,1.3129
14.9432,411,1.3258
14.9475,543,1.7516
14.9517,600,1.9355
14.9559,505,1.6290
14.9601,397,1.2806
14.9644,445,1.4355
14.9686,579,1.8677
14.9729,597,1.9258
14.9771,478,1.5419
14.9813,409,1.3194
14.9855,499,1.6097
14.9897,615,1.9839
14.9939,592,1.9097
14.9981,454,1.4645
15.0025,419,1.3516
15.0071,552,1.7806
15.0248,472,1.5226
15.0308,622,2.0065
15.0351,556,1.7935
15.0395,431,1.3903
15.0438,457,1.4742
15.0480,593,1.9129
15.0522,635,2.0484
15.0564,533,1.7194
15.0606,442,1.4258
15.0649,508,1.6387
15.0691,641,2.0677
15.0733,650,2.0968
15.0775,538,1.7355
15.0817,489,1.5774
15.0859,587,1.8935
15.0901,686,2.2129
15.0944,636,2.0516
15.0986,496,1.6000
15.1029,478,1.5419
15.1071,599,1.9323
15.1113,661,2.1323
15.1156,573,1.8484
15.1198,448,1.4452
15.1240,476,1.5355
15.1282,609,1.9645
15.1324,640,2.0645
15.1366,528,1.7032
15.1409,438,1.4129
15.1451,509,1.6419
15.1493,636,2.0516
15.1535,629,2.0290
15.1577,504,1.6258
15.1619,448,1.4452
15.1662,551,1.7774
15.1704,649,2.0935
15.1746,600,1.9355
15.1788,465,1.5000
15.1832,445,1.4355
15.1880,593,1.9129
15.1923,666,2.1484
15.1966,640,2.0645
15.2008,679,2.1903
15.2051,887,2.8613
15.2093,1003,3.2355
15.2136,1005,3.2419
15.2179,1003,3.2355
15.2221,1000,3.2258
15.2263,1001,3.2290
15.2306,937,3.0226
15.2348,701,2.2613
15.2390,455,1.4677
15.2432,409,1.3194
15.2474,544,1.7548
15.2517,621,2.0032
15.2559,542,1.7484
15.2602,442,1.4258
15.2644,491,1.5839
15.2687,627,2.0226
15.2729,646,2.0839
15.2771,527,1.7000
15.2813,450,1.4516
15.2855,530,1.7097
15.2898,650,2.0968
15.2940,626,2.0194
15.2984,487,1.5710
15.3028,461,1.4871
15.3072,591,1.9065
15.3115,665,2.1452
15.3158,580,1.8710
15.3201,468,1.5097
15.3243,508,1.6387
15.3286,646,2.0839
15.3329,670,2.1613
15.3372,551,1.7774
15.3414,475,1.5323
15.3457,568,1.8323
15.3500,684,2.2065
15.3542,655,2.1129
15.3584,516,1.6645
15.3627,485,1.5645
15.3669,607,1.9581
15.3712,689,2.2226
15.3753,618,1.9935
15.3796,498,1.6065
15.3838,519,1.6742
15.3879,654,2.1097
15.3922,705,2.2742
15.3964,604,1.9484
15.4007,510,1.6452
15.4050,581,1.8742
15.4093,716,2.3097
15.4136,716,2.3097
15.4179,589,1.9000
15.4223,548,1.7677
15.4267,672,2.1677
15.4311,762,2.4581
15.4355,687,2.2161
15.4399,563,1.8161
15.4442,598,1.9290
15.4486,732,2.3613
15.4530,746,2.4065
15.4575,607,1.9581
15.4619,530,1.7097
15.4664,627,2.0226
15.4709,706,2.2774
15.4754,610,1.9677
15.4799,464,1.4968
15.4843,483,1.5581
15.4886,604,1.9484
15.4930,604,1.9484
15.4974,462,1.4903
15.5018,386,1.2452
15.5062,482,1.5548
15.5106,576,1.8581
15.5149,511,1.6484
15.5193,374,1.2065
15.5237,380,1.2258
15.5281,514,1.6581
15.5324,550,1.7742
15.5368,435,1.4032
15.5411,346,1.1161
15.5454,425,1.3710
15.5498,549,1.7710
15.5542,523,1.6871
15.5585,386,1.2452
15.5629,365,1.1774
15.5673,498,1.6065
15.5716,566,1.8258
15.5760,478,1.5419
15.5803,371,1.1968
15.5847,425,1.3710
15.5891,559,1.8032
15.5935,558,1.8000
15.5978,428,1.3806
15.6022,382,1.2323
15.6066,500,1.6129
15.6110,593,1.9129
15.6153,523,1.6871
15.6197,397,1.2806
15.6241,426,1.3742
15.6285,566,1.8258
15.6328,593,1.9129
15.6372,469,1.5129
15.6416,394,1.2710
15.6459,489,1.5774
15.6503,601,1.9387
15.6546,554,1.7871
15.6590,418,1.3484
15.6633,411,1.3258
15.6677,547,1.7645
15.6721,600,1.9355
15.6764,492,1.5871
15.6808,390,1.2581
15.6852,456,1.4710
15.6896,584,1.8839
15.6940,563,1.8161
15.6984,423,1.3645
15.7028,390,1.2581
15.7071,515,1.6613
15.7115,587,1.8935
15.7159,499,1.6097
15.7202,382,1.2323
15.7246,427,1.3774
15.7291,560,1.8065
15.7335,562,1.8129
15.7379,430,1.3871
15.7422,383,1.2355
15.7466,504,1.6258
15.7510,609,1.9645
15.7554,548,1.7677
15.7598,427,1.3774
15.7641,458,1.4774
15.7685,599,1.9323
15.7729,624,2.0129
15.7773,501,1.6161
15.7816,428,1.3806
15.7887,609,1.9645
15.7931,622,2.0065
15.7975,493,1.5903
15.8021,427,1.3774
15.8065,536,1.7290
15.8109,631,2.0355
15.8154,564,1.8194
15.8197,445,1.4355
15.8241,475,1.5323
15.8285,617,1.9903
15.8328,648,2.0903
15.8372,531,1.7129
15.8415,460,1.4839
15.8459,565,1.8226
15.8503,693,2.2355
15.8547,659,2.1258
15.8591,520,1.6774
15.8635,508,1.6387
15.8678,629,2.0290
15.8722,666,2.1484
15.8766,550,1.7742
15.8809,447,1.4419
15.8853,508,1.6387
15.8897,619,1.9968
15.8941,582,1.8774
15.8986,432,1.3935
15.9030,401,1.2935
15.9073,524,1.6903
15.9117,589,1.9000
15.9161,494,1.5935
15.9205,379,1.2226
15.9249,433,1.3968
15.9293,571,1.8419
15.9337,568,1.8323
15.9381,437,1.4097
15.9424,394,1.2710
15.9468,509,1.6419
15.9511,585,1.8871
15.9555,492,1.5871
15.9598,360,1.1613
15.9641,409,1.3194
15.9684,623,2.0097
15.9727,784,2.5290
15.9771,826,2.6645
15.9814,898,2.8968
15.9858,1002,3.2323
15.9901,1002,3.2323
15.9945,1003,3.2355
15.9989,875,2.8226
16.0032,616,1.9871
16.0076,553,1.7839
16.0119,529,1.7065
16.0163,410,1.3226
16.0206,312,1.0065
16.0249,383,1.2355
16.0293,530,1.7097
16.0336,534,1.7226
16.0380,402,1.2968
16.0423,351,1.1323
16.0466,464,1.4968
16.0510,560,1.8065
16.0554,497,1.6032
16.0597,368,1.1871
16.0641,392,1.2645
16.0684,529,1.7065
16.0728,564,1.8194
16.0771,449,1.4484
16.0815,372,1.2000
16.0887,555,1.7903
16.0930,584,1.8839
16.0974,458,1.4774
16.1018,386,1.2452
16.1061,482,1.5548
16.1105,594,1.9161
16.1148,552,1.7806
16.1191,424,1.3677
16.1235,424,1.3677
16.1278,560,1.8065
16.1321,622,2.0065
16.1364,532,1.7161
16.1408,437,1.4097
16.1451,506,1.6323
16.1495,642,2.0710
16.1538,645,2.0806
16.1582,520,1.6774
16.1625,485,1.5645
16.1668,610,1.9677
16.1711,705,2.2742
16.1754,650,2.0968
16.1797,533,1.7194
16.1840,556,1.7935
16.1882,697,2.2484
16.1925,747,2.4097
16.1968,645,2.0806
16.2011,557,1.7968
16.2054,634,2.0452
16.2097,762,2.4581
16.2139,752,2.4258
16.2182,619,1.9968
16.2224,565,1.8226
16.2266,667,2.1516
16.2308,752,2.4258
16.2351,685,2.2097
16.2393,539,1.7387
16.2435,516,1.6645
16.2477,629,2.0290
16.2519,672,2.1677
16.2562,567,1.8290
16.2604,436,1.4065
16.2646,463,1.4935
16.2688,586,1.8903
16.2730,599,1.9323
16.2772,477,1.5387
16.2814,386,1.2452
16.2857,465,1.5000
16.2900,580,1.8710
16.2943,552,1.7806
16.2987,412,1.3290
16.3030,386,1.2452
16.3074,509,1.6419
16.3116,579,1.8677
16.3159,495,1.5968
16.3202,378,1.2194
16.3244,407,1.3129
16.3286,542,1.7484
16.3328,574,1.8516
16.3371,461,1.4871
16.3414,375,1.2097
16.3456,453,1.4613
16.3499,576,1.8581
16.3541,557,1.7968
16.3584,421,1.3581
16.3627,384,1.2387
16.3671,503,1.6226
16.3714,587,1.8935
16.3756,514,1.6581
16.3799,389,1.2548
16.3842,410,1.3226
16.3884,543,1.7516
16.3927,579,1.8677
16.3970,468,1.5097
16.4013,377,1.2161
16.4056,449,1.4484
16.4099,570,1.8387
16.4142,548,1.7677
16.4185,414,1.3355
16.4227,375,1.2097
16.4270,489,1.5774
16.4312,577,1.8613
16.4354,512,1.6516
16.4397,383,1.2355
16.4439,389,1.2548
16.4481,517,1.6677
16.4523,564,1.8194
16.4566,461,1.4871
16.4608,359,1.1581
16.4650,408,1.3161
16.4692,536,1.7290
16.4734,545,1.7581
16.4777,421,1.3581
16.4819,353,1.1387
16.4861,446,1.4387
16.4903,559,1.8032
16.4945,529,1.7065
16.4988,394,1.2710
16.5031,364,1.1742
16.5073,484,1.5613
16.5116,563,1.8161
16.5160,479,1.5452
16.5203,361,1.1645
16.5246,397,1.2806
16.5289,532,1.7161
16.5332,551,1.7774
16.5375,428,1.3806
16.5418,354,1.1419
16.5461,443,1.4290
16.5504,552,1.7806
16.5552,500,1.6129
16.5595,369,1.1903
16.5638,373,1.2032
16.5680,501,1.6161
16.5722,557,1.7968
16.5764,462,1.4903
16.5806,353,1.1387
16.5848,400,1.2903
16.5890,530,1.7097
16.5932,549,1.7710
16.5974,434,1.4000
16.6018,362,1.1677
16.6060,456,1.4710
16.6103,576,1.8581
16.6147,545,1.7581
16.6190,419,1.3516
16.6233,413,1.3323
16.6276,555,1.7903
16.6319,625,2.0161
16.6363,532,1.7161
16.6406,413,1.3323
16.6448,446,1.4387
16.6491,568,1.8323
16.6534,578,1.8645
16.6576,449,1.4484
16.6619,370,1.1935
16.6662,453,1.4613
16.6704,554,1.7871
16.6746,516,1.6645
16.6788,380,1.2258
16.6836,358,1.1548
16.6884,503,1.6226
16.6927,541,1.7452
16.6970,432,1.3935
16.7012,340,1.0968
16.7054,404,1.3032
16.7096,531,1.7129
16.7138,527,1.7000
16.7180,399,1.2871
16.7222,338,1.0903
16.7265,429,1.3839
16.7307,512,1.6516
16.7349,461,1.4871
16.7391,341,1.1000
16.7434,379,1.2226
16.7476,613,1.9774
16.7519,831,2.6806
16.7561,899,2.9000
16.7605,960,3.0968
16.7648,1002,3.2323
16.7691,1002,3.2323
16.7734,994,3.2065
16.7777,721,2.3258
16.7820,443,1.4290
16.7864,418,1.3484
16.7907,485,1.5645
16.7950,434,1.4000
16.7996,316,1.0194
16.8039,335,1.0806
16.8083,480,1.5484
16.8128,526,1.6968
16.8171,419,1.3516
16.8214,332,1.0710
16.8258,411,1.3258
16.8301,534,1.7226
16.8344,518,1.6710
16.8387,388,1.2516
16.8431,364,1.1742
16.8474,490,1.5806
16.8517,572,1.8452
16.8560,496,1.6000
16.8603,378,1.2194
16.8646,413,1.3323
16.8689,550,1.7742
16.8732,578,1.8645
16.8775,462,1.4903
16.8818,388,1.2516
16.8860,475,1.5323
16.8903,593,1.9129
16.8946,568,1.8323
16.8989,440,1.4194
16.9032,419,1.3516
16.9075,546,1.7613
16.9118,624,2.0129
16.9161,547,1.7645
16.9204,435,1.4032
16.9247,477,1.5387
16.9290,614,1.9806
16.9333,640,2.0645
16.9375,527,1.7000
16.9418,458,1.4774
16.9461,555,1.7903
16.9504,679,2.1903
16.9546,656,2.1161
16.9589,527,1.7000
16.9632,508,1.6387
16.9674,639,2.0613
16.9717,721,2.3258
16.9760,650,2.0968
16.9803,536,1.7290
16.9846,567,1.8290
16.9892,710,2.2903
16.9936,724,2.3355
16.9979,598,1.9290
17.0022,531,1.7129
17.0065,621,2.0032
17.0107,716,2.3097
17.0150,660,2.1290
17.0193,516,1.6645
17.0236,485,1.5645
17.0278,596,1.9226
17.0321,644,2.0774
17.0364,543,1.7516
17.0407,421,1.3581
17.0449,451,1.4548
17.0492,572,1.8452
17.0535,579,1.8677
17.0578,448,1.4452
17.0621,374,1.2065
17.0665,467,1.5065
17.0708,569,1.8355
17.0751,520,1.6774
17.0793,388,1.2516
17.0836,376,1.2129
17.0878,499,1.6097
17.0920,564,1.8194
17.0962,480,1.5484
17.1005,366,1.1806
17.1047,401,1.2935
17.1089,534,1.7226
17.1132,562,1.8129
17.1174,449,1.4484
17.1216,366,1.1806
17.1258,439,1.4161
17.1300,561,1.8097
17.1342,548,1.7677
17.1385,419,1.3516
17.1427,374,1.2065
17.1469,481,1.5516
17.1511,576,1.8581
17.1553,523,1.6871
17.1596,393,1.2677
17.1638,391,1.2613
17.1680,519,1.6742
17.1722,579,1.8677
17.1765,485,1.5645
17.1807,374,1.2065
17.1850,414,1.3355
17.1892,540,1.7419
17.1934,554,1.7871
17.1976,433,1.3968
17.2018,352,1.1355
17.2061,427,1.3774
17.2103,541,1.7452
17.2145,520,1.6774
17.2187,387,1.2484
17.2229,350,1.1290
17.2271,460,1.4839
17.2313,547,1.7645
17.2356,484,1.5613
17.2398,359,1.1581
17.2441,366,1.1806
17.2483,498,1.6065
17.2525,548,1.7677
17.2567,449,1.4484
17.2610,346,1.1161
17.2652,397,1.2806
17.2694,528,1.7032
17.2737,539,1.7387
17.2779,419,1.3516
17.2821,353,1.1387
17.2864,442,1.4258
17.2906,553,1.7839
17.2948,525,1.6935
17.2990,397,1.2806
17.3032,371,1.1968
17.3074,488,1.5742
17.3116,566,1.8258
17.3158,502,1.6194
17.3200,380,1.2258
17.3242,393,1.2677
17.3284,526,1.6968
17.3326,577,1.8613
17.3368,480,1.5484
17.3411,379,1.2226
17.3453,434,1.4000
17.3495,563,1.8161
17.3538,568,1.8323
17.3580,447,1.4419
17.3622,380,1.2258
17.3664,472,1.5226
17.3706,583,1.8806
17.3748,550,1.7742
17.3790,419,1.3516
17.3833,393,1.2677
17.3875,514,1.6581
17.3917,593,1.9129
17.3959,523,1.6871
17.4002,401,1.2935
17.4044,423,1.3645
17.4087,559,1.8032
17.4129,607,1.9581
17.4171,507,1.6355
17.4213,416,1.3419
17.4255,481,1.5516
17.4297,611,1.9710
17.4340,614,1.9806
17.4382,498,1.6065
17.4424,453,1.4613
17.4467,553,1.7839
17.4509,647,2.0871
17.4551,599,1.9323
17.4593,459,1.4806
17.4635,436,1.4065
17.4678,559,1.8032
17.4720,623,2.0097
17.4762,535,1.7258
17.4804,409,1.3194
17.4847,428,1.3806
17.4889,556,1.7935
17.4931,586,1.8903
17.4973,475,1.5323
17.5015,387,1.2484
17.5058,454,1.4645
17.5100,574,1.8516
17.5142,567,1.8290
17.5184,439,1.4161
17.5226,382,1.2323
17.5268,487,1.5710
17.5311,588,1.8968
17.5354,537,1.7323
17.5397,402,1.2968
17.5440,384,1.2387
17.5484,500,1.6129
17.5527,549,1.7710
17.5570,479,1.5452
17.5613,468,1.5097
17.5655,660,2.1290
17.5698,934,3.0129
17.5741,1001,3.2290
17.5784,1000,3.2258
17.5828,1000,3.2258
17.5901,972,3.1355
17.5945,748,2.4129
17.5988,453,1.4613
17.6031,332,1.0710
17.6074,423,1.3645
17.6117,517,1.6677
17.6160,458,1.4774
17.6204,351,1.1323
17.6247,382,1.2323
17.6290,517,1.6677
17.6332,547,1.7645
17.6375,435,1.4032
17.6417,353,1.1387
17.6460,429,1.3839
17.6503,549,1.7710
17.6546,535,1.7258
17.6588,413,1.3323
17.6631,379,1.2226
17.6674,496,1.6000
17.6716,582,1.8774
17.6759,519,1.6742
17.6802,402,1.2968
17.6844,423,1.3645
17.6887,557,1.7968
17.6930,600,1.9355
17.6973,497,1.6032
17.7015,408,1.3161
17.7058,483,1.5581
17.7101,605,1.9516
17.7143,598,1.9290
17.7186,476,1.5355
17.7228,432,1.3935
17.7273,548,1.7677
17.7316,636,2.0516
17.7360,572,1.8452
17.7403,458,1.4774
17.7446,486,1.5677
17.7489,622,2.0065
17.7532,661,2.1323
17.7575,551,1.7774
17.7619,476,1.5355
17.7665,575,1.8548
17.7708,687,2.2161
17.7751,652,2.1032
17.7794,529,1.7065
17.7837,523,1.6871
17.7880,652,2.1032
17.7924,720,2.3226
17.7967,631,2.0355
17.8010,527,1.7000
17.8053,576,1.8581
17.8096,709,2.2871
17.8139,716,2.3097
17.8182,589,1.9000
17.8225,523,1.6871
17.8267,608,1.9613
17.8309,697,2.2484
17.8352,639,2.0613
17.8395,495,1.5968
17.8438,471,1.5194
17.8481,583,1.8806
17.8523,628,2.0258
17.8566,528,1.7032
17.8608,406,1.3097
17.8651,438,1.4129
17.8694,562,1.8129
17.8737,571,1.8419
17.8779,449,1.4484
17.8822,374,1.2065
17.8865,458,1.4774
17.8908,563,1.8161
17.8951,524,1.6903
17.8994,391,1.2613
17.9037,379,1.2226
17.9079,500,1.6129
17.9121,571,1.8419
17.9164,489,1.5774
17.9206,376,1.2129
17.9248,407,1.3129
17.9290,539,1.7387
17.9332,570,1.8387
17.9375,462,1.4903
17.9417,376,1.2129
17.9459,448,1.4452
17.9502,570,1.8387
17.9544,562,1.8129
17.9586,437,1.4097
17.9629,392,1.2645
17.9671,495,1.5968
17.9713,590,1.9032
17.9755,540,1.7419
17.9797,414,1.3355
17.9840,413,1.3323
17.9883,540,1.7419
17.9926,598,1.9290
17.9969,501,1.6161
18.0013,398,1.2839
18.0058,469,1.5129
18.0102,594,1.9161
18.0145,584,1.8839
18.0188,457,1.4742
18.0231,422,1.3613
18.0275,539,1.7387
18.0318,617,1.9903
18.0364,548,1.7677
18.0408,434,1.4000
18.0452,478,1.5419
18.0497,606,1.9548
18.0540,614,1.9806
18.0583,485,1.5645
18.0626,427,1.3774
18.0669,529,1.7065
18.0713,626,2.0194
18.0756,571,1.8419
18.0800,439,1.4161
18.0845,454,1.4645
18.0888,585,1.8871
18.0931,622,2.0065
18.0974,513,1.6548
18.1017,424,1.3677
18.1060,491,1.5839
18.1103,611,1.9710
18.1146,593,1.9129
18.1189,467,1.5065
18.1233,434,1.4000
18.1277,556,1.7935
18.1320,631,2.0355
18.1366,542,1.7484
18.1410,429,1.3839
18.1454,478,1.5419
18.1498,607,1.9581
18.1543,601,1.9387
18.1587,472,1.5226
18.1631,429,1.3839
18.1675,545,1.7581
18.1720,629,2.0290
18.1764,554,1.7871
18.1809,445,1.4355
18.1854,497,1.6032
18.1898,631,2.0355
18.1943,635,2.0484
18.1988,519,1.6742
18.2032,495,1.5968
18.2076,612,1.9742
18.2120,684,2.2065
18.2165,590,1.9032
18.2209,461,1.4871
18.2253,496,1.6000
18.2297,624,2.0129
18.2341,621,2.0032
18.2384,486,1.5677
18.2428,421,1.3581
18.2472,521,1.6806
18.2516,607,1.9581
18.2560,527,1.7000
18.2606,403,1.3000
18.2650,435,1.4032
18.2694,566,1.8258
18.2738,583,1.8806
18.2782,461,1.4871
18.2826,396,1.2774
18.2869,497,1.6032
18.2913,595,1.9194
18.2958,536,1.7290
18.3002,402,1.2968
18.3046,399,1.2871
18.3090,517,1.6677
18.3134,548,1.7677
18.3181,467,1.5065
18.3322,998,3.2194
18.3440,1001,3.2290
18.3485,995,3.2097
18.3529,844,2.7226
18.3574,545,1.7581
18.3618,335,1.0806
18.3662,367,1.1839
18.3706,487,1.5710
18.3749,478,1.5419
18.3793,363,1.1710
18.3837,352,1.1355
18.3881,483,1.5581
18.3924,550,1.7742
18.3968,461,1.4871
18.4012,356,1.1484
18.4055,410,1.3226
18.4099,541,1.7452
18.4142,545,1.7581
18.4186,418,1.3484
18.4229,369,1.1903
18.4273,481,1.5516
18.4316,575,1.8548
18.4360,516,1.6645
18.4403,394,1.2710
18.4447,412,1.3290
18.4490,546,1.7613
18.4534,582,1.8774
18.4578,474,1.5290
18.4621,400,1.2903
18.4665,488,1.5742
18.4708,602,1.9419
18.4752,573,1.8484
18.4796,445,1.4355
18.4840,436,1.4065
18.4884,567,1.8290
18.4928,626,2.0194
18.4972,534,1.7226
18.5016,443,1.4290
18.5060,516,1.6645
18.5105,644,2.0774
18.5149,627,2.0226
18.5196,495,1.5968
18.5242,499,1.6097
18.5287,640,2.0645
18.5332,690,2.2258
18.5379,580,1.8710
18.5422,510,1.6452
18.5466,599,1.9323
18.5509,711,2.2935
18.5554,677,2.1839
18.5598,547,1.7645
18.5641,551,1.7774
18.5686,672,2.1677
18.5730,717,2.3129
18.5773,612,1.9742
18.5817,509,1.6419
18.5860,564,1.8194
18.5904,672,2.1677
18.5948,638,2.0581
18.5992,487,1.5710
18.6036,446,1.4387
18.6081,557,1.7968
18.6125,608,1.9613
18.6168,504,1.6258
18.6213,385,1.2419
18.6256,428,1.3806
18.6300,547,1.7645
18.6344,537,1.7323
18.6388,402,1.2968
18.6432,353,1.1387
18.6476,466,1.5032
18.6520,549,1.7710
18.6564,473,1.5258
18.6608,357,1.1516
18.6652,390,1.2581
18.6854,399,1.2871
18.6898,530,1.7097
18.6942,535,1.7258
18.6986,410,1.3226
18.7031,362,1.1677
18.7075,474,1.5290
18.7118,560,1.8065
18.7162,495,1.5968
18.7206,374,1.2065
18.7249,399,1.2871
18.7294,533,1.7194
18.7341,547,1.7645
18.7387,415,1.3387
18.7433,372,1.2000
18.7480,494,1.5935
18.7526,560,1.8065
18.7572,461,1.4871
18.7616,364,1.1742
18.7660,428,1.3806
18.7704,553,1.7839
18.7749,535,1.7258
18.7793,405,1.3065
18.7837,379,1.2226
18.7881,505,1.6290
18.7925,572,1.8452
18.7969,481,1.5516
18.8013,371,1.1968
18.8057,421,1.3581
18.8100,555,1.7903
18.8145,552,1.7806
18.8188,421,1.3581
18.8232,375,1.2097
18.8276,490,1.5806
18.8320,578,1.8645
18.8363,508,1.6387
18.8407,383,1.2355
18.8451,410,1.3226
18.8495,548,1.7677
18.8539,570,1.8387
18.8583,446,1.4387
18.8627,377,1.2161
18.8671,474,1.5290
18.8714,577,1.8613
18.8758,527,1.7000
18.8802,399,1.2871
18.8845,407,1.3129
18.8889,543,1.7516
18.8934,582,1.8774
18.8983,455,1.4677
18.9029,391,1.2613
18.9078,514,1.6581
18.9123,596,1.9226
18.9167,512,1.6516
18.9213,397,1.2806
18.9257,449,1.4484
18.9301,580,1.8710
18.9346,573,1.8484
18.9555,555,1.7903
18.9603,412,1.3290
18.9648,426,1.3742
18.9693,569,1.8355
18.9742,587,1.8935
18.9788,449,1.4484
18.9836,408,1.3161
18.9882,541,1.7452
18.9928,613,1.9774
18.9982,480,1.5484
19.0056,469,1.5129
19.0102,615,1.9839
19.0151,604,1.9484
19.0197,475,1.5323
19.0241,474,1.5290
19.0287,623,2.0097
19.0332,667,2.1516
19.0378,542,1.7484
19.0425,444,1.4323
19.0469,531,1.7129
19.0516,635,2.0484
19.0562,565,1.8226
19.0607,426,1.3742
19.0654,452,1.4581
19.0700,582,1.8774
19.0744,581,1.8742
19.0788,452,1.4581
19.0832,402,1.2968
19.0876,512,1.6516
19.0920,598,1.9290
19.0964,524,1.6903
19.1008,400,1.2903
19.1051,427,1.3774
19.1095,559,1.8032
19.1139,577,1.8613
19.1184,454,1.4645
19.1228,384,1.2387
19.1272,470,1.5161
19.1315,550,1.7742
19.1359,487,1.5710
19.1402,374,1.2065
19.1446,444,1.4323
19.1489,700,2.2581
19.1532,907,2.9258
19.1575,961,3.1000
19.1619,1001,3.2290
19.1662,1004,3.2387
19.1705,1004,3.2387
19.1749,966,3.1161
19.1792,634,2.0452
19.1836,407,1.3129
19.1879,432,1.3935
19.1922,490,1.5806
19.1966,418,1.3484
19.2010,308,0.9935
19.2054,353,1.1387
19.2098,493,1.5903
19.2141,507,1.6355
19.2185,381,1.2290
19.2229,317,1.0226
19.2273,418,1.3484
19.2316,523,1.6871
19.2360,470,1.5161
19.2404,345,1.1129
19.2448,360,1.1613
19.2491,499,1.6097
19.2535,540,1.7419
19.2578,430,1.3871
19.2622,349,1.1258
19.2666,432,1.3935
19.2714,559,1.8032
19.2759,512,1.6516
19.2803,382,1.2323
19.2846,390,1.2581
19.2889,527,1.7000
19.2932,579,1.8677
19.2975,477,1.5387
19.3019,387,1.2484
19.3062,461,1.4871
19.3105,592,1.9097
19.3148,585,1.8871
19.3191,461,1.4871
19.3234,427,1.3774
19.3277,545,1.7581
19.3320,640,2.0645
19.3363,583,1.8806
19.3406,465,1.5000
19.3448,487,1.5710
19.3491,626,2.0194
19.3533,678,2.1871
19.3579,571,1.8419
19.3622,494,1.5935
19.3665,577,1.8613
19.3707,702,2.2645
19.3750,694,2.2387
19.3793,567,1.8290
19.3835,533,1.7194
19.3878,647,2.0871
19.3920,735,2.3710
19.3963,668,2.1548
19.4007,542,1.7484
19.4050,557,1.7968
19.4092,677,2.1839
19.4135,701,2.2613
19.4177,583,1.8806
19.4219,472,1.5226
19.4261,519,1.6742
19.4304,630,2.0323
19.4346,612,1.9742
19.4388,473,1.5258
19.4430,403,1.3000
19.4473,493,1.5903
19.4515,585,1.8871
19.4557,531,1.7129
19.4605,384,1.2387
19.4648,388,1.2516
19.4690,516,1.6645
19.4732,560,1.8065
19.4775,457,1.4742
19.4817,356,1.1484
19.4860,409,1.3194
19.4902,534,1.7226
19.4944,538,1.7355
19.4986,414,1.3355
19.5029,353,1.1387
19.5072,452,1.4581
19.5114,560,1.8065
19.5156,527,1.7000
19.5198,400,1.2903
19.5240,379,1.2226
19.5283,502,1.6194
19.5325,574,1.8516
19.5367,500,1.6129
19.5409,385,1.2419
19.5452,415,1.3387
19.5495,552,1.7806
19.5538,584,1.8839
19.5580,474,1.5290
19.5622,391,1.2613
19.5665,464,1.4968
19.5707,585,1.8871
19.5750,570,1.8387
19.5792,444,1.4323
19.5835,406,1.3097
19.5877,516,1.6645
19.5919,603,1.9452
19.5961,548,1.7677
19.6004,421,1.3581
19.6046,424,1.3677
19.6089,550,1.7742
19.6131,602,1.9419
19.6173,508,1.6387
19.6215,403,1.3000
19.6257,450,1.4516
19.6300,582,1.8774
19.6342,599,1.9323
19.6384,481,1.5516
19.6426,409,1.3194
19.6469,496,1.6000
19.6512,608,1.9613
19.6554,578,1.8645
19.6596,445,1.4355
19.6639,417,1.3452
19.6681,533,1.7194
19.6724,608,1.9613
19.6766,532,1.7161
19.6809,412,1.3290
19.6852,437,1.4097
19.6902,588,1.8968
19.6945,593,1.9129
19.6988,468,1.5097
19.7032,410,1.3226
19.7075,515,1.6613
19.7119,613,1.9774
19.7163,558,1.8000
19.7207,432,1.3935
19.7251,451,1.4548
19.7295,583,1.8806
19.7338,612,1.9742
19.7380,501,1.6161
19.7423,415,1.3387
19.7466,492,1.5871
19.7508,608,1.9613
19.7551,593,1.9129
19.7593,464,1.4968
19.7635,422,1.3613
19.7681,545,1.7581
19.7723,625,2.0161
19.7766,556,1.7935
19.7808,436,1.4065
19.7850,451,1.4548
19.7893,585,1.8871
19.7935,625,2.0161
19.7977,522,1.6839
19.8026,427,1.3774
19.8068,514,1.6581
19.8111,629,2.0290
19.8154,602,1.9419
19.8197,472,1.5226
19.8240,451,1.4548
19.8284,578,1.8645
19.8327,655,2.1129
19.8371,575,1.8548
19.8414,470,1.5161
19.8457,521,1.6806
19.8503,672,2.1677
19.8546,673,2.1710
19.8589,541,1.7452
19.8633,478,1.5419
19.8676,572,1.8452
19.8720,659,2.1258
19.8767,581,1.8742
19.8810,446,1.4387
19.8853,462,1.4903
19.8896,585,1.8871
19.8940,607,1.9581
19.8990,464,1.4968
19.9033,408,1.3161
19.9076,512,1.6516
19.9121,609,1.9645
19.9165,547,1.7645
19.9208,423,1.3645
19.9251,437,1.4097
19.9295,575,1.8548
19.9339,606,1.9548
19.9382,492,1.5871
19.9424,409,1.3194
19.9467,482,1.5548
19.9510,585,1.8871
19.9553,545,1.7581
19.9597,413,1.3323
19.9640,418,1.3484
19.9682,624,2.0129
19.9725,834,2.6903
19.9768,907,2.9258
19.9816,937,3.0226
19.9859,1003,3.2355
19.9902,1005,3.2419
19.9945,1003,3.2355
19.9995,799,2.5774
20.0039,552,1.7806
20.0081,519,1.6742
20.0124,533,1.7194
20.0169,443,1.4290
20.0213,337,1.0871
20.0257,391,1.2613
20.0300,536,1.7290
20.0343,554,1.7871
20.0392,417,1.3452
20.0435,370,1.1935
20.0478,478,1.5419
20.0521,571,1.8419
20.0563,514,1.6581
20.0606,390,1.2581
20.0649,400,1.2903
20.0692,533,1.7194
20.0735,580,1.8710
20.0781,465,1.5000
20.0824,382,1.2323
20.0867,462,1.4903
20.0910,583,1.8806
20.0954,563,1.8161
20.0999,428,1.3806
20.1042,409,1.3194
20.1085,537,1.7323
20.1128,608,1.9613
20.1171,525,1.6935
20.1214,413,1.3323
20.1257,457,1.4742
20.1300,592,1.9097
20.1344,615,1.9839
20.1387,497,1.6032
20.1430,435,1.4032
20.1473,536,1.7290
20.1516,645,2.0806
20.1559,608,1.9613
20.1603,485,1.5645
20.1683,597,1.9258
20.1726,682,2.2000
20.1768,616,1.9871
20.1812,502,1.6194
20.1855,538,1.7355
20.1898,676,2.1806
20.1940,707,2.2806
20.1989,577,1.8613
20.2032,514,1.6581
20.2075,613,1.9774
20.2117,716,2.3097
20.2160,671,2.1645
20.2203,536,1.7290
20.2245,518,1.6710
20.2291,643,2.0742
20.2334,682,2.2000
20.2376,574,1.8516
20.2418,455,1.4677
20.2461,490,1.5806
20.2503,604,1.9484
20.2545,597,1.9258
20.2587,462,1.4903
20.2629,379,1.2226
20.2672,459,1.4806
20.2714,557,1.7968
20.2757,520,1.6774
20.2799,381,1.2290
20.2846,360,1.1613
20.2888,484,1.5613
20.2930,545,1.7581
20.2973,455,1.4677
20.3015,343,1.1065
20.3058,384,1.2387
20.3100,516,1.6645
20.3142,539,1.7387
20.3184,423,1.3645
20.3226,345,1.1129
20.3269,428,1.3806
20.3311,547,1.7645
20.3354,528,1.7032
20.3396,400,1.2903
20.3438,366,1.1806
20.3481,484,1.5613
20.3523,570,1.8387
20.3565,507,1.6355
20.3607,387,1.2484
20.3650,398,1.2839
20.3692,533,1.7194
20.3734,583,1.8806
20.3776,487,1.5710
20.3819,386,1.2452
20.3861,443,1.4290
20.3904,572,1.8452
20.3946,581,1.8742
20.3988,461,1.4871
20.4030,394,1.2710
20.4073,485,1.5645
20.4115,589,1.9000
20.4158,556,1.7935
20.4200,429,1.3839
20.4242,404,1.3032
20.4284,520,1.6774
20.4327,595,1.9194
20.4369,518,1.6710
20.4412,401,1.2935
20.4454,422,1.3613
20.4497,552,1.7806
20.4539,582,1.8774
20.4581,472,1.5226
20.4624,384,1.2387
20.4666,451,1.4548
20.4709,571,1.8419
20.4751,558,1.8000
20.4793,432,1.3935
20.4836,386,1.2452
20.4879,494,1.5935
20.4922,586,1.8903
20.4965,527,1.7000
20.5007,400,1.2903
20.5055,417,1.3452
20.5097,548,1.7677
20.5139,581,1.8742
20.5182,468,1.5097
20.5224,377,1.2161
20.5266,444,1.4323
20.5312,573,1.8484
20.5355,550,1.7742
20.5397,422,1.3613
20.5439,389,1.2548
20.5482,502,1.6194
20.5524,589,1.9000
20.5566,527,1.7000
20.5609,405,1.3065
20.5650,417,1.3452
20.5693,549,1.7710
20.5735,599,1.9323
20.5778,503,1.6226
20.5820,403,1.3000
20.5866,468,1.5097
20.5909,590,1.9032
20.5951,583,1.8806
20.5993,460,1.4839
20.6035,414,1.3355
20.6078,528,1.7032
20.6121,626,2.0194
20.6163,584,1.8839
20.6205,466,1.5032
20.6247,468,1.5097
20.6290,600,1.9355
20.6333,668,2.1548
20.6375,587,1.8935
20.6418,490,1.5806
20.6460,529,1.7065
20.6502,652,2.1032
20.6545,655,2.1129
20.6587,530,1.7097
20.6630,455,1.4677
20.6673,541,1.7452
20.6716,638,2.0581
20.6759,591,1.9065
20.6801,453,1.4613
20.6843,427,1.3774
20.6887,547,1.7645
20.6930,610,1.9677
20.6972,525,1.6935
20.7014,412,1.3290
20.7062,459,1.4806
20.7105,588,1.8968
20.7148,589,1.9000
20.7192,457,1.4742
20.7235,402,1.2968
20.7278,506,1.6323
20.7321,599,1.9323
20.7370,512,1.6516
20.7414,373,1.2032
20.7457,392,1.2645
20.7503,542,1.7484
20.7546,609,1.9645
20.7589,597,1.9258
20.7632,684,2.2065
20.7674,929,2.9968
20.7717,1005,3.2419
20.7760,1002,3.2323
20.7803,1002,3.2323
20.7846,956,3.0839
20.7889,819,2.6419
20.7932,662,2.1355
20.7975,449,1.4484
20.8018,300,0.9677
20.8067,366,1.1806
20.8110,504,1.6258
20.8158,492,1.5871
20.8201,368,1.1871
20.8243,350,1.1290
20.8285,471,1.5194
20.8327,548,1.7677
20.8373,465,1.5000
20.8416,355,1.1452
20.8458,393,1.2677
20.8500,527,1.7000
20.8542,552,1.7806
20.8585,442,1.4258
20.8627,363,1.1710
20.8669,441,1.4226
20.8711,560,1.8065
20.8754,544,1.7548
20.8796,418,1.3484
20.8839,381,1.2290
20.8881,497,1.6032
20.8924,587,1.8935
20.8967,529,1.7065
20.9010,409,1.3194
20.9052,427,1.3774
20.9096,563,1.8161
20.9138,605,1.9516
20.9181,505,1.6290
20.9223,418,1.3484
20.9265,485,1.5645
20.9307,612,1.9742
20.9349,617,1.9903
20.9392,498,1.6065
20.9435,450,1.4516
20.9478,561,1.8097
20.9522,663,2.1387
20.9565,612,1.9742
20.9608,493,1.5903
20.9651,507,1.6355
20.9695,643,2.0742
20.9737,694,2.2387
20.9780,599,1.9323
20.9823,512,1.6516
20.9867,584,1.8839
20.9909,712,2.2968
20.9952,708,2.2839
21.0000,562,1.8129
21.0043,538,1.7355
21.0086,656,2.1161
21.0128,731,2.3581
21.0170,649,2.0935
21.0213,520,1.6774
21.0255,535,1.7258
21.0298,654,2.1097
21.0340,674,2.1742
21.0382,550,1.7742
21.0425,445,1.4355
21.0468,502,1.6194
21.0511,610,1.9677
21.0554,583,1.8806
21.0598,440,1.4194
21.0641,395,1.2742
21.0685,504,1.6258
21.0728,574,1.8516
21.0777,474,1.5290
21.0820,365,1.1774
21.0862,412,1.3290
21.0905,540,1.7419
21.0948,543,1.7516
21.0991,416,1.3419
21.1036,357,1.1516
21.1079,462,1.4903
21.1121,563,1.8161
21.1163,515,1.6613
21.1206,386,1.2452
21.1248,381,1.2290
21.1291,510,1.6452
21.1333,575,1.8548
21.1375,487,1.5710
21.1418,378,1.2194
21.1460,421,1.3581
21.1502,551,1.7774
21.1545,571,1.8419
21.1587,458,1.4774
21.1635,383,1.2355
21.1677,484,1.5613
21.1719,585,1.8871
21.1762,543,1.7516
21.1805,409,1.3194
21.1848,399,1.2871
21.1891,524,1.6903
21.1934,581,1.8742
21.1977,490,1.5806
21.2019,385,1.2419
21.2062,435,1.4032
21.2105,564,1.8194
21.2148,569,1.8355
21.2191,441,1.4226
21.2234,380,1.2258
21.2277,479,1.5452
21.2320,576,1.8581
21.2363,528,1.7032
21.2410,391,1.2613
21.2453,404,1.3032
21.2497,535,1.7258
21.2540,570,1.8387
21.2583,459,1.4806
21.2626,371,1.1968
21.2669,444,1.4323
21.2712,563,1.8161
21.2754,548,1.7677
21.2798,419,1.3516
21.2841,386,1.2452
21.2884,502,1.6194
21.2927,583,1.8806
21.2970,513,1.6548
21.3012,390,1.2581
21.3055,411,1.3258
21.3098,544,1.7548
21.3141,579,1.8677
21.3184,468,1.5097
21.3229,382,1.2323
21.3272,464,1.4968
21.3315,579,1.8677
21.3358,551,1.7774
21.3401,420,1.3548
21.3445,399,1.2871
21.3488,522,1.6839
21.3530,597,1.9258
21.3573,519,1.6742
21.3615,405,1.3065
21.3658,437,1.4097
21.3701,571,1.8419
21.3744,595,1.9194
21.3787,480,1.5484
21.3830,402,1.2968
21.3873,487,1.5710
21.3916,598,1.9290
21.3959,568,1.8323
21.4001,441,1.4226
21.4047,422,1.3613
21.4090,548,1.7677
21.4133,612,1.9742
21.4175,528,1.7032
21.4217,423,1.3645
21.4259,463,1.4935
21.4302,597,1.9258
21.4344,624,2.0129
21.4386,516,1.6645
21.4429,438,1.4129
21.4471,522,1.6839
21.4514,647,2.0871
21.4556,643,2.0742
21.4598,523,1.6871
21.4640,478,1.5419
21.4683,581,1.8742
21.4727,658,2.1226
21.4770,576,1.8581
21.4813,449,1.4484
21.4855,462,1.4903
21.4898,584,1.8839
21.4941,608,1.9613
21.4984,485,1.5645
21.5028,395,1.2742
21.5071,466,1.5032
21.5114,580,1.8710
21.5157,554,1.7871
21.5200,422,1.3613
21.5244,394,1.2710
21.5287,514,1.6581
21.5330,587,1.8935
21.5374,501,1.6161
21.5418,387,1.2484
21.5460,424,1.3677
21.5503,551,1.7774
21.5546,560,1.8065
21.5589,427,1.3774
21.5632,334,1.0774
21.5675,417,1.3452
21.5723,563,1.8161
21.5766,587,1.8935
21.5809,599,1.9323
21.5853,769,2.4806
21.5896,1000,3.2258
21.5938,1003,3.2355
21.5980,1000,3.2258
21.6022,999,3.2226
21.6065,876,2.8258
21.6107,737,2.3774
21.6150,561,1.8097
21.6192,364,1.1742
21.6234,288,0.9290
21.6276,393,1.2677
21.6318,518,1.6710
21.6361,492,1.5871
21.6404,366,1.1806
21.6447,354,1.1419
21.6490,480,1.5484
21.6534,543,1.7516
21.6578,452,1.4581
21.6621,350,1.1290
21.6665,405,1.3065
21.6708,536,1.7290
21.6752,534,1.7226
21.6798,404,1.3032
21.6842,372,1.2000
21.6887,500,1.6129
21.6931,575,1.8548
21.6976,487,1.5710
21.7021,379,1.2226
21.7064,437,1.4097
21.7109,582,1.8774
21.7161,553,1.7839
21.7206,422,1.3613
21.7250,419,1.3516
21.7295,558,1.8000
21.7340,605,1.9516
21.7384,497,1.6032
21.7429,415,1.3387
21.7473,503,1.6226
21.7517,620,2.0000
21.7561,592,1.9097
21.7605,465,1.5000
21.7649,466,1.5032
21.7693,602,1.9419
21.7737,660,2.1290
21.7781,563,1.8161
21.7824,470,1.5161
21.7868,545,1.7581
21.7912,678,2.1871
21.7955,671,2.1645
21.7999,544,1.7548
21.8043,517,1.6677
21.8087,644,2.0774
21.8131,722,2.3290
21.8175,640,2.0645
21.8220,527,1.7000
21.8263,573,1.8484
21.8307,704,2.2710
21.8354,695,2.2419
21.8398,553,1.7839
21.8442,505,1.6290
21.8486,609,1.9645
21.8530,672,2.1677
21.8573,572,1.8452
21.8617,437,1.4097
21.8661,463,1.4935
21.8705,585,1.8871
21.8749,582,1.8774
21.8793,446,1.4387
21.8837,379,1.2226
21.8881,478,1.5419
21.8925,565,1.8226
21.8971,487,1.5710
21.9014,360,1.1613
21.9058,385,1.2419
21.9102,520,1.6774
21.9146,542,1.7484
21.9190,420,1.3548
21.9234,353,1.1387
21.9278,453,1.4613
21.9322,555,1.7903
21.9368,495,1.5968
21.9412,370,1.1935
21.9456,389,1.2548
21.9500,524,1.6903
21.9543,555,1.7903
21.9587,439,1.4161
21.9631,362,1.1677
21.9675,451,1.4548
21.9719,563,1.8161
21.9763,522,1.6839
21.9806,391,1.2613
21.9850,386,1.2452
21.9895,522,1.6839
21.9939,569,1.8355
21.9983,462,1.4903
22.0027,366,1.1806
22.0077,462,1.4903
22.0120,572,1.8452
22.0164,526,1.6968
22.0208,397,1.2806
22.0252,396,1.2774
22.0296,532,1.7161
22.0340,578,1.8645
22.0384,469,1.5129
22.0430,378,1.2194
22.0474,461,1.4871
22.0518,577,1.8613
22.0562,543,1.7516
22.0606,410,1.3226
22.0657,417,1.3452
22.0701,550,1.7742
22.0745,577,1.8613
22.0789,457,1.4742
22.0833,382,1.2323
22.0877,475,1.5323
22.0921,578,1.8645
22.0965,529,1.7065
22.1010,397,1.2806
22.1054,404,1.3032
22.1098,539,1.7387
22.1142,577,1.8613
22.1186,463,1.4935
22.1233,382,1.2323
22.1277,476,1.5355
22.1321,585,1.8871
22.1364,536,1.7290
22.1408,403,1.3000
22.1452,402,1.2968
22.1496,537,1.7323
22.1540,582,1.8774
22.1584,475,1.5323
22.1628,387,1.2484
22.1672,463,1.4935
22.1717,580,1.8710
22.1760,552,1.7806
22.1804,418,1.3484
22.1851,408,1.3161
22.1895,540,1.7419
22.1939,583,1.8806
22.1989,464,1.4968
22.2033,393,1.2677
22.2077,488,1.5742
22.2121,593,1.9129
22.2165,543,1.7516
22.2209,411,1.3258
22.2254,417,1.3452
22.2305,568,1.8323
22.2349,584,1.8839
22.2393,457,1.4742
22.2437,396,1.2774
22.2480,502,1.6194
22.2524,604,1.9484
22.2568,548,1.7677
22.2612,423,1.3645
22.2656,447,1.4419
22.2700,587,1.8935
22.2745,617,1.9903
22.2789,510,1.6452
22.2833,444,1.4323
22.2878,552,1.7806
22.2921,662,2.1355
22.2965,606,1.9548
22.3009,468,1.5097
22.3054,465,1.5000
22.3098,594,1.9161
22.3142,631,2.0355
22.3187,506,1.6323
22.3231,414,1.3355
22.3275,494,1.5935
22.3319,603,1.9452
22.3364,558,1.8000
22.3408,421,1.3581
22.3452,416,1.3419
22.3502,565,1.8226
22.3546,590,1.9032
22.3590,476,1.5355
22.3633,405,1.3065
22.3677,494,1.5935
22.3720,601,1.9387
22.3764,552,1.7806
22.3808,417,1.3452
22.3851,404,1.3032
22.3895,518,1.6710
22.3939,554,1.7871
22.3983,459,1.4806
22.4027,418,1.3484
22.4070,597,1.9258
22.4114,864,2.7871
22.4157,988,3.1871
22.4201,996,3.2129
22.4244,1000,3.2258
22.4288,1002,3.2323
22.4332,999,3.2226
22.4376,785,2.5323
22.4419,490,1.5806
22.4462,409,1.3194
22.4511,509,1.6419
22.4561,486,1.5677
22.4604,373,1.2032
22.4648,371,1.1968
22.4691,505,1.6290
22.4735,569,1.8355
22.4779,478,1.5419
22.4822,375,1.2097
22.4866,432,1.3935
22.4909,562,1.8129
22.4954,563,1.8161
22.4997,432,1.3935
22.5041,386,1.2452
22.5085,503,1.6226
22.5133,595,1.9194
22.5177,513,1.6548
22.5221,405,1.3065
22.5264,453,1.4613
22.5308,585,1.8871
22.5351,594,1.9161
22.5395,471,1.5194
22.5439,421,1.3581
22.5482,531,1.7129
22.5526,628,2.0258
22.5569,569,1.8355
22.5613,446,1.4387
22.5657,469,1.5129
22.5700,608,1.9613
22.5749,641,2.0677
22.5793,522,1.6839
22.5836,462,1.4903
22.5880,566,1.8258
22.5924,671,2.1645
22.5967,623,2.0097
22.6011,497,1.6032
22.6055,510,1.6452
22.6103,660,2.1290
22.6146,694,2.2387
22.6190,580,1.8710
22.6234,510,1.6452
22.6277,606,1.9548
22.6321,717,2.3129
22.6365,678,2.1871
22.6408,546,1.7613
22.6451,539,1.7387
22.6494,670,2.1613
22.6537,725,2.3387
22.6580,630,2.0323
22.6623,521,1.6806
22.6665,562,1.8129
22.6708,684,2.2065
22.6751,679,2.1903
22.6794,539,1.7387
22.6837,460,1.4839
22.6879,540,1.7419
22.6922,628,2.0258
22.6964,575,1.8548
22.7006,432,1.3935
22.7049,405,1.3065
22.7091,515,1.6613
22.7133,574,1.8516
22.7176,485,1.5645
22.7224,361,1.1645
22.7266,408,1.3161
22.7308,532,1.7161
22.7350,539,1.7387
22.7392,418,1.3484
22.7435,350,1.1290
22.7478,443,1.4290
22.7521,553,1.7839
22.7564,510,1.6452
22.7608,383,1.2355
22.7651,377,1.2161
22.7695,508,1.6387
22.7738,563,1.8161
22.7781,465,1.5000
22.7825,367,1.1839
22.7868,424,1.3677
22.7911,551,1.7774
22.7954,545,1.7581
22.7998,416,1.3419
22.8041,372,1.2000
22.8085,484,1.5613
22.8128,571,1.8419
22.8172,505,1.6290
22.8216,385,1.2419
22.8259,412,1.3290
22.8302,548,1.7677
22.8344,582,1.8774
22.8387,474,1.5290
22.8430,393,1.2677
22.8473,470,1.5161
22.8515,588,1.8968
22.8558,570,1.8387
22.8600,440,1.4194
22.8642,397,1.2806
22.8685,507,1.6355
22.8727,595,1.9194
22.8769,537,1.7323
22.8811,411,1.3258
22.8859,423,1.3645
22.8901,551,1.7774
22.8944,584,1.8839
22.8987,473,1.5258
22.9030,387,1.2484
22.9074,463,1.4935
22.9117,579,1.8677
22.9160,551,1.7774
22.9202,416,1.3419
22.9245,382,1.2323
22.9288,498,1.6065
22.9331,575,1.8548
22.9375,500,1.6129
22.9418,380,1.2258
22.9460,409,1.3194
22.9506,544,1.7548
22.9549,561,1.8097
22.9592,439,1.4161
22.9635,366,1.1806
22.9677,454,1.4645
22.9720,561,1.8097
22.9762,532,1.7161
22.9804,402,1.2968
22.9846,374,1.2065
22.9888,490,1.5806
22.9930,567,1.8290
22.9972,498,1.6065
23.0015,379,1.2226
23.0057,394,1.2710
23.0100,524,1.6903
23.0142,565,1.8226
23.0185,463,1.4935
23.0227,373,1.2032
23.0270,441,1.4226
23.0313,568,1.8323
23.0356,563,1.8161
23.0400,442,1.4258
23.0443,406,1.3097
23.0486,525,1.6935
23.0529,623,2.0097
23.0573,573,1.8484
23.0616,464,1.4968
23.0660,486,1.5677
23.0702,609,1.9645
23.0745,629,2.0290
23.0788,507,1.6355
23.0830,415,1.3387
23.0873,487,1.5710
23.0916,597,1.9258
23.0958,572,1.8452
23.1001,439,1.4161
23.1043,394,1.2710
23.1086,501,1.6161
23.1129,585,1.8871
23.1171,525,1.6935
23.1213,401,1.2935
23.1255,411,1.3258
23.1298,541,1.7452
23.1340,590,1.9032
23.1382,493,1.5903
23.1424,393,1.2677
23.1467,443,1.4290
23.1515,586,1.8903
23.1563,546,1.7613
23.1606,397,1.2806
23.1649,359,1.1581
23.1692,486,1.5677
23.1735,594,1.9161
23.1778,600,1.9355
23.1821,630,2.0323
23.1865,820,2.6452
23.1908,1003,3.2355
23.1951,1004,3.2387
23.1993,1001,3.2290
23.2036,974,3.1419
23.2079,820,2.6452
23.2124,687,2.2161
23.2167,498,1.6065
23.2210,313,1.0097
23.2253,298,0.9613
23.2296,441,1.4226
23.2338,515,1.6613
23.2380,432,1.3935
23.2422,329,1.0613
23.2465,371,1.1968
23.2507,503,1.6226
23.2550,520,1.6774
23.2592,403,1.3000
23.2634,333,1.0742
23.2677,419,1.3516
23.2719,535,1.7258
23.2762,509,1.6419
23.2804,382,1.2323
23.2846,356,1.1484
23.2889,478,1.5419
23.2932,559,1.8032
23.2975,484,1.5613
23.3019,371,1.1968
23.3062,407,1.3129
23.3110,555,1.7903
23.3154,563,1.8161
23.3198,437,1.4097
23.3241,386,1.2452
23.3283,492,1.5871
23.3326,593,1.9129
23.3368,548,1.7677
23.3411,428,1.3806
23.3454,433,1.3968
23.3497,567,1.8290
23.3540,627,2.0226
23.3583,538,1.7355
23.3625,444,1.4323
23.3667,506,1.6323
23.3709,640,2.0645
23.3752,655,2.1129
23.3795,540,1.7419
23.3837,486,1.5677
23.3879,583,1.8806
23.3921,697,2.2484
23.3963,675,2.1774
23.4006,552,1.7806
23.4048,534,1.7226
23.4091,659,2.1258
23.4133,737,2.3774
23.4176,663,2.1387
23.4219,544,1.7548
23.4262,575,1.8548
23.4305,707,2.2806
23.4349,724,2.3355
23.4392,599,1.9323
23.4435,515,1.6613
23.4478,590,1.9032
23.4521,684,2.2065
23.4565,631,2.0355
23.4608,483,1.5581
23.4651,455,1.4677
23.4695,569,1.8355
23.4738,619,1.9968
23.4781,514,1.6581
23.4825,399,1.2871
23.4868,442,1.4258
23.4911,562,1.8129
23.4954,558,1.8000
23.4997,426,1.3742
23.5045,370,1.1935
23.5089,484,1.5613
23.5136,562,1.8129
23.5180,470,1.5161
23.5223,361,1.1645
23.5267,410,1.3226
23.5310,541,1.7452
23.5353,550,1.7742
23.5396,424,1.3677
23.5440,364,1.1742
23.5483,465,1.5000
23.5526,563,1.8161
23.5569,511,1.6484
23.5612,383,1.2355
23.5656,388,1.2516
23.5699,519,1.6742
23.5742,566,1.8258
23.5785,464,1.4968
23.5829,371,1.1968
23.5872,438,1.4129
23.5915,561,1.8097
23.5958,552,1.7806
23.6001,422,1.3613
23.6045,385,1.2419
23.6089,504,1.6258
23.6132,585,1.8871
23.6179,499,1.6097
23.6223,392,1.2645
23.6265,436,1.4065
23.6308,567,1.8290
23.6350,584,1.8839
23.6393,466,1.5032
23.6436,397,1.2806
23.6479,487,1.5710
23.6521,597,1.9258
23.6564,562,1.8129
23.6607,436,1.4065
23.6649,417,1.3452
23.6692,534,1.7226
23.6734,607,1.9581
23.6776,533,1.7194
23.6818,417,1.3452
23.6860,440,1.4194
23.6903,569,1.8355
23.6945,604,1.9484
23.6987,500,1.6129
23.7029,410,1.3226
23.7072,476,1.5355
23.7114,594,1.9161
23.7157,585,1.8871
23.7202,448,1.4452
23.7246,413,1.3323
23.7289,530,1.7097
23.7332,608,1.9613
23.7376,533,1.7194
23.7419,416,1.3419
23.7463,449,1.4484
23.7505,576,1.8581
23.7548,602,1.9419
23.7590,485,1.5645
23.7633,406,1.3097
23.7676,486,1.5677
23.7719,601,1.9387
23.7761,579,1.8677
23.7804,450,1.4516
23.7847,422,1.3613
23.7890,539,1.7387
23.7933,613,1.9774
23.7975,541,1.7452
23.8020,420,1.3548
23.8062,447,1.4419
23.8109,579,1.8677
23.8152,585,1.8871
23.8195,461,1.4871
23.8237,393,1.2677
23.8280,485,1.5645
23.8322,593,1.9129
23.8364,562,1.8129
23.8406,437,1.4097
23.8448,414,1.3355
23.8491,538,1.7355
23.8534,619,1.9968
23.8577,553,1.7839
23.8621,441,1.4226
23.8664,468,1.5097
23.8708,591,1.9065
23.8751,593,1.9129
23.8794,460,1.4839
23.8839,392,1.2645
23.8882,484,1.5613
23.8926,575,1.8548
23.8968,520,1.6774
23.9011,386,1.2452
23.9053,376,1.2129
23.9097,496,1.6000
23.9140,550,1.7742
23.9182,456,1.4710
23.9226,354,1.1419
23.9269,407,1.3129
23.9312,534,1.7226
23.9355,534,1.7226
23.9398,410,1.3226
23.9440,356,1.1484
23.9483,457,1.4742
23.9526,553,1.7839
23.9568,499,1.6097
23.9611,351,1.1323
23.9656,337,1.0871
23.9699,474,1.5290
23.9741,578,1.8645
23.9783,594,1.9161
23.9825,641,2.0677
23.9867,847,2.7323
23.9910,1004,3.2387
23.9952,1003,3.2355
23.9994,1003,3.2355
24.0038,959,3.0935
24.0083,780,2.5161
24.0126,653,2.1065
24.0169,481,1.5516
24.0213,316,1.0194
24.0256,320,1.0323
24.0299,465,1.5000
24.0342,530,1.7097
24.0385,439,1.4161
24.0427,345,1.1129
24.0475,421,1.3581
24.0518,540,1.7419
24.0560,527,1.7000
24.0603,398,1.2839
24.0647,367,1.1839
24.0690,487,1.5710
24.0733,566,1.8258
24.0776,499,1.6097
24.0819,388,1.2516
24.0861,414,1.3355
24.0904,548,1.7677
24.0947,582,1.8774
24.0989,478,1.5419
24.1031,396,1.2774
24.1073,466,1.5032
24.1115,589,1.9000
24.1159,582,1.8774
24.1202,461,1.4871
24.1244,421,1.3581
24.1286,530,1.7097
24.1328,624,2.0129
24.1371,574,1.8516
24.1413,454,1.4645
24.1456,460,1.4839
24.1499,594,1.9161
24.1542,647,2.0871
24.1586,553,1.7839
24.1629,465,1.5000
24.1672,533,1.7194
24.1715,662,2.1355
24.1758,663,2.1387
24.1800,548,1.7677
24.1843,511,1.6484
24.1887,628,2.0258
24.1930,728,2.3484
24.1973,673,2.1710
24.2016,560,1.8065
24.2059,579,1.8677
24.2101,714,2.3032
24.2144,762,2.4581
24.2187,659,2.1258
24.2230,565,1.8226
24.2272,627,2.0226
24.2315,749,2.4161
24.2358,738,2.3806
24.2400,609,1.9645
24.2442,544,1.7548
24.2484,634,2.0452
24.2526,715,2.3065
24.2569,651,2.1000
24.2611,508,1.6387
24.2654,489,1.5774
24.2696,599,1.9323
24.2739,641,2.0677
24.2782,541,1.7452
24.2825,425,1.3710
24.2869,470,1.5161
24.2912,590,1.9032
24.2954,591,1.9065
24.2997,459,1.4806
24.3040,397,1.2806
24.3083,493,1.5903
24.3126,594,1.9161
24.3176,525,1.6935
24.3218,406,1.3097
24.3261,426,1.3742
24.3304,558,1.8000
24.3347,591,1.9065
24.3390,482,1.5548
24.3433,400,1.2903
24.3475,475,1.5323
24.3517,597,1.9258
24.3559,586,1.8903
24.3602,460,1.4839
24.3644,416,1.3419
24.3687,525,1.6935
24.3729,616,1.9871
24.3771,561,1.8097
24.3814,435,1.4032
24.3856,435,1.4032
24.3898,561,1.8097
24.3940,617,1.9903
24.3982,526,1.6968
24.4026,420,1.3548
24.4069,468,1.5097
24.4116,604,1.9484
24.4159,592,1.9097
24.4202,464,1.4968
24.4245,422,1.3613
24.4288,531,1.7129
24.4331,616,1.9871
24.4374,549,1.7710
24.4417,427,1.3774
24.4460,441,1.4226
24.4502,570,1.8387
24.4545,608,1.9613
24.4588,501,1.6161
24.4632,410,1.3226
24.4675,479,1.5452
24.4717,597,1.9258
24.4759,582,1.8774
24.4802,455,1.4677
24.4844,408,1.3161
24.4886,512,1.6516
24.4928,607,1.9581
24.4974,546,1.7613
24.5016,424,1.3677
24.5059,432,1.3935
24.5101,557,1.7968
24.5143,601,1.9387
24.5185,502,1.6194
24.5228,405,1.3065
24.5271,462,1.4903
24.5314,587,1.8935
24.5357,585,1.8871
24.5400,459,1.4806
24.5443,409,1.3194
24.5487,515,1.6613
24.5530,606,1.9548
24.5573,547,1.7645
24.5616,422,1.3613
24.5660,436,1.4065
24.5704,571,1.8419
24.5747,608,1.9613
24.5790,497,1.6032
24.5833,412,1.3290
24.5876,485,1.5645
24.5919,604,1.9484
24.5961,588,1.8968
24.6004,460,1.4839
24.6047,425,1.3710
24.6090,536,1.7290
24.6132,619,1.9968
24.6176,550,1.7742
24.6219,429,1.3839
24.6261,449,1.4484
24.6303,579,1.8677
24.6345,616,1.9871
24.6387,517,1.6677
24.6429,422,1.3613
24.6472,484,1.5613
24.6514,608,1.9613
24.6556,609,1.9645
24.6599,486,1.5677
24.6641,428,1.3806
24.6684,527,1.7000
24.6727,624,2.0129
24.6771,572,1.8452
24.6814,444,1.4323
24.6857,450,1.4516
24.6900,585,1.8871
24.6943,638,2.0581
24.6986,547,1.7645
24.7030,454,1.4645
24.7073,523,1.6871
24.7117,653,2.1065
24.7160,654,2.1097
24.7203,533,1.7194
24.7246,488,1.5742
24.7289,592,1.9097
24.7332,670,2.1613
24.7374,594,1.9161
24.7417,467,1.5065
24.7466,491,1.5839
24.7509,611,1.9710
24.7551,621,2.0032
24.7594,497,1.6032
24.7638,421,1.3581
24.7680,503,1.6226
24.7723,608,1.9613
24.7765,580,1.8710
24.7807,451,1.4548
24.7849,419,1.3516
24.7892,536,1.7290
24.7934,616,1.9871
24.7976,548,1.7677
24.8018,427,1.3774
24.8060,440,1.4194
24.8103,568,1.8323
24.8146,602,1.9419
24.8189,481,1.5516
24.8233,378,1.2194
24.8276,455,1.4677
24.8319,607,1.9581
24.8363,672,2.1677
24.8405,680,2.1935
24.8448,801,2.5839
24.8492,1002,3.2323
24.8535,1004,3.2387
24.8578,1006,3.2452
24.8621,1002,3.2323
24.8663,974,3.1419
24.8706,855,2.7581
24.8750,679,2.1903
24.8792,466,1.5032
24.8836,359,1.1581
24.8879,447,1.4419
24.8922,575,1.8548
24.8965,561,1.8097
24.9007,438,1.4129
24.9050,411,1.3258
24.9092,526,1.6968
24.9136,602,1.9419
24.9179,525,1.6935
24.9223,409,1.3194
24.9266,445,1.4355
24.9310,578,1.8645
24.9353,596,1.9226
24.9396,478,1.5419
24.9439,412,1.3290
24.9483,505,1.6290
24.9526,613,1.9774
24.9569,570,1.8387
24.9612,444,1.4323
24.9655,440,1.4194
24.9699,568,1.8323
24.9742,626,2.0194
24.9786,532,1.7161
24.9829,434,1.4000
24.9877,510,1.6452
24.9921,629,2.0290
24.9964,612,1.9742
25.0007,486,1.5677
25.0050,463,1.4935
25.0093,585,1.8871
25.0137,663,2.1387
25.0184,572,1.8452
25.0228,471,1.5194
25.0272,531,1.7129
25.0316,661,2.1323
25.0359,665,2.1452
25.0402,548,1.7677
25.0446,509,1.6419
25.0494,640,2.0645
25.0537,718,2.3161
25.0580,645,2.0806
25.0623,536,1.7290
25.0666,575,1.8548
25.0710,708,2.2839
25.0754,729,2.3516
25.0797,614,1.9806
25.0840,546,1.7613
25.0884,639,2.0613
25.0927,741,2.3903
25.0970,691,2.2290
25.1013,553,1.7839
25.1056,537,1.7323
25.1100,646,2.0839
25.1149,678,2.1871
25.1197,530,1.7097
25.1240,445,1.4355
25.1283,521,1.6806
25.1327,607,1.9581
25.1370,550,1.7742
25.1413,412,1.3290
25.1456,395,1.2742
25.1499,513,1.6548
25.1542,558,1.8000
25.1586,458,1.4774
25.1629,357,1.1516
25.1674,413,1.3323
25.1721,540,1.7419
25.1764,514,1.6581
25.1808,379,1.2226
25.1852,354,1.1419
25.1896,475,1.5323
25.1939,541,1.7452
25.1982,457,1.4742
25.2026,351,1.1323
25.2069,395,1.2742
25.2112,524,1.6903
25.2155,537,1.7323
25.2201,412,1.3290
25.2244,361,1.1645
25.2287,464,1.4968
25.2336,559,1.8032
25.2379,483,1.5581
25.2422,369,1.1903
25.2466,400,1.2903
25.2509,530,1.7097
25.2552,549,1.7710
25.2596,430,1.3871
25.2639,360,1.1613
25.2683,448,1.4452
25.2726,552,1.7806
25.2769,513,1.6548
25.2813,385,1.2419
25.2856,380,1.2258
25.2899,506,1.6323
25.2942,560,1.8065
25.2992,445,1.4355
25.3035,362,1.1677
25.3078,441,1.4226
25.3122,558,1.8000
25.3165,532,1.7161
25.3209,401,1.2935
25.3252,380,1.2258
25.3296,502,1.6194
25.3339,569,1.8355
25.3382,482,1.5548
25.3426,370,1.1935
25.3469,411,1.3258
25.3512,540,1.7419
25.3555,551,1.7774
25.3598,429,1.3839
25.3641,367,1.1839
25.3690,480,1.5484
25.3733,567,1.8290
25.3776,503,1.6226
25.3819,383,1.2355
25.3862,400,1.2903
25.3906,533,1.7194
25.3949,567,1.8290
25.3992,455,1.4677
25.4035,372,1.2000
25.4078,449,1.4484
25.4122,565,1.8226
25.4165,541,1.7452
25.4208,412,1.3290
25.4251,386,1.2452
25.4295,505,1.6290
25.4338,575,1.8548
25.4383,487,1.5710
25.4426,378,1.2194
25.4469,421,1.3581
25.4512,551,1.7774
25.4555,562,1.8129
25.4598,439,1.4161
25.4642,376,1.2129
25.4685,477,1.5387
25.4729,580,1.8710
25.4772,531,1.7129
25.4815,402,1.2968
25.4859,401,1.2935
25.4936,580,1.8710
25.4979,507,1.6355
25.5023,395,1.2742
25.5066,430,1.3871
25.5110,570,1.8387
25.5154,594,1.9161
25.5203,459,1.4806
25.5247,420,1.3548
25.5291,547,1.7645
25.5334,647,2.0871
25.5377,579,1.8677
25.5420,450,1.4516
25.5463,459,1.4806
25.5506,580,1.8710
25.5550,608,1.9613
25.5593,496,1.6000
25.5636,408,1.3161
25.5679,477,1.5387
25.5723,586,1.8903
25.5766,554,1.7871
25.5809,408,1.3161
25.5858,404,1.3032
25.5902,531,1.7129
25.5945,580,1.8710
25.5988,480,1.5484
25.6031,383,1.2355
25.6075,445,1.4355
25.6118,570,1.8387
25.6161,561,1.8097
25.6204,435,1.4032
25.6256,399,1.2871
25.6299,517,1.6677
25.6343,557,1.7968
25.6386,448,1.4452
25.6429,355,1.1452
25.6472,457,1.4742
25.6516,685,2.2097
25.6559,830,2.6774
25.6602,846,2.7290
25.6645,940,3.0323
25.6689,1001,3.2290
25.6732,1004,3.2387
25.6776,992,3.2000
25.6819,732,2.3613
25.6862,527,1.7000
25.6906,514,1.6581
25.6949,491,1.5839
25.6992,375,1.2097
25.7035,303,0.9774
25.7085,419,1.3516
25.7128,532,1.7161
25.7171,493,1.5903
25.7221,353,1.1387
25.7264,373,1.2032
25.7307,506,1.6323
25.7351,535,1.7258
25.7394,425,1.3710
25.7437,347,1.1194
25.7481,430,1.3871
25.7524,543,1.7516
25.7567,513,1.6548
25.7610,384,1.2387
25.7657,369,1.1903
25.7700,497,1.6032
25.7743,552,1.7806
25.7787,458,1.4774
25.7830,359,1.1581
25.7872,410,1.3226
25.7914,536,1.7290
25.7956,547,1.7645
25.7998,431,1.3903
25.8040,364,1.1742
25.8082,451,1.4548
25.8125,562,1.8129
25.8167,537,1.7323
25.8209,415,1.3387
25.8251,390,1.2581
25.8294,510,1.6452
25.8337,589,1.9000
25.8380,523,1.6871
25.8424,411,1.3258
25.8476,473,1.5258
25.8520,602,1.9419
25.8565,591,1.9065
25.8609,466,1.5032
25.8654,454,1.4645
25.8698,584,1.8839
25.8743,650,2.0968
25.8787,558,1.8000
25.8832,462,1.4903
25.8876,531,1.7129
25.8921,657,2.1194
25.8966,638,2.0581
25.9010,505,1.6290
25.9055,484,1.5613
25.9099,604,1.9484
25.9143,656,2.1161
25.9188,543,1.7516
25.9235,430,1.3871
25.9279,491,1.5839
25.9323,591,1.9065
25.9367,551,1.7774
25.9411,407,1.3129
25.9455,374,1.2065
25.9498,487,1.5710
25.9549,532,1.7161
25.9593,413,1.3323
25.9637,324,1.0452
25.9681,401,1.2935
25.9725,511,1.6484
25.9769,473,1.5258
25.9813,342,1.1032
25.9857,331,1.0677
25.9901,459,1.4806
25.9945,514,1.6581
25.9989,412,1.3290
26.0033,318,1.0258
26.0077,385,1.2419
26.0125,514,1.6581
26.0168,484,1.5613
26.0212,358,1.1548
26.0256,346,1.1161
26.0300,476,1.5355
26.0344,534,1.7226
26.0388,440,1.4194
26.0432,344,1.1097
26.0476,410,1.3226
26.0520,534,1.7226
26.0564,520,1.6774
26.0608,388,1.2516
26.0652,357,1.1516
26.0696,478,1.5419
26.0745,549,1.7710
26.0788,450,1.4516
26.0832,350,1.1290
26.0876,416,1.3419
26.0920,539,1.7387
26.0964,524,1.6903
26.1008,392,1.2645
26.1052,360,1.1613
26.1096,483,1.5581
26.1140,554,1.7871
26.1184,469,1.5129
26.1228,358,1.1548
26.1272,403,1.3000
26.1316,532,1.7161
26.1359,534,1.7226
26.1403,406,1.3097
26.1447,357,1.1516
26.1491,466,1.5032
26.1535,554,1.7871
26.1579,487,1.5710
26.1623,365,1.1774
26.1667,392,1.2645
26.1710,524,1.6903
26.1754,545,1.7581
26.1798,422,1.3613
26.1842,353,1.1387
26.1886,449,1.4484
26.1930,551,1.7774
26.1976,494,1.5935
26.2019,365,1.1774
26.2063,378,1.2194
26.2107,513,1.6548
26.2151,552,1.7806
26.2195,442,1.4258
26.2243,365,1.1774
26.2287,461,1.4871
26.2331,563,1.8161
26.2375,513,1.6548
26.2419,388,1.2516
26.2463,399,1.2871
26.2507,534,1.7226
26.2551,572,1.8452
26.2595,459,1.4806
26.2639,379,1.2226
26.2683,466,1.5032
26.2727,580,1.8710
26.2771,540,1.7419
26.2815,407,1.3129
26.2859,405,1.3065
26.2903,533,1.7194
26.2947,585,1.8871
26.2992,482,1.5548
26.3036,396,1.2774
26.3080,477,1.5387
26.3124,603,1.9452
26.3168,580,1.8710
26.3212,450,1.4516
26.3255,441,1.4226
26.3300,582,1.8774
26.3344,662,2.1355
26.3388,571,1.8419
26.3432,465,1.5000
26.3476,518,1.6710
26.3520,632,2.0387
26.3564,612,1.9742
26.3608,477,1.5387
26.3652,435,1.4032
26.3697,548,1.7677
26.3741,609,1.9645
26.3785,518,1.6710
26.3828,404,1.3032
26.3872,446,1.4387
26.3916,577,1.8613
26.3960,578,1.8645
26.4004,449,1.4484
26.4048,397,1.2806
26.4092,505,1.6290
26.4136,589,1.9000
26.4180,519,1.6742
26.4224,398,1.2839
26.4268,423,1.3645
26.4312,549,1.7710
26.4356,555,1.7903
26.4400,416,1.3419
26.4444,352,1.1355
26.4488,477,1.5387
26.4532,660,2.1290
26.4575,746,2.4065
26.4619,784,2.5290
26.4663,957,3.0871
26.4707,1002,3.2323
26.4751,1005,3.2419
26.4796,998,3.2194
26.4840,811,2.6161
26.4884,628,2.0258
26.4928,567,1.8290
26.4972,466,1.5032
26.5016,331,1.0677
26.5061,343,1.1065
26.5105,485,1.5645
26.5149,537,1.7323
26.5193,437,1.4097
26.5237,352,1.1355
26.5284,439,1.4161
26.5328,549,1.7710
26.5372,513,1.6548
26.5415,392,1.2645
26.5459,387,1.2484
26.5503,515,1.6613
26.5547,568,1.8323
26.5592,473,1.5258
26.5636,388,1.2516
26.5680,459,1.4806
26.5724,578,1.8645
26.5768,558,1.8000
26.5812,434,1.4000
26.5856,416,1.3419
26.5901,539,1.7387
26.5945,596,1.9226
26.5989,510,1.6452
26.6033,415,1.3387
26.6077,473,1.5258
26.6121,596,1.9226
26.6164,592,1.9097
26.6208,470,1.5161
