time_s,adc_raw,voltage
0.0000,935,3.0161
0.0046,712,2.2968
0.0289,483,1.5581
0.0336,507,1.6355
0.0382,434,1.4000
0.0428,400,1.2903
0.0475,470,1.5161
0.0521,516,1.6645
0.0568,463,1.4935
0.0615,401,1.2935
0.0662,451,1.4548
0.0708,522,1.6839
0.0754,500,1.6129
0.0800,425,1.3710
0.0845,435,1.4032
0.0891,518,1.6710
0.0937,531,1.7129
0.0983,460,1.4839
0.1029,431,1.3903
0.1075,505,1.6290
0.1121,552,1.7806
0.1168,503,1.6226
0.1214,444,1.4323
0.1260,494,1.5935
0.1306,568,1.8323
0.1353,550,1.7742
0.1398,478,1.5419
0.1444,489,1.5774
0.1490,572,1.8452
0.1536,591,1.9065
0.1582,523,1.6871
0.1628,495,1.5968
0.1675,571,1.8419
0.1721,623,2.0097
0.1768,576,1.8581
0.1814,521,1.6806
0.1860,571,1.8419
0.1906,648,2.0903
0.1952,635,2.0484
0.1998,562,1.8129
0.2045,572,1.8452
0.2090,659,2.1258
0.2136,675,2.1774
0.2182,604,1.9484
0.2228,570,1.8387
0.2273,637,2.0548
0.2319,683,2.2032
0.2365,627,2.0226
0.2411,548,1.7677
0.2458,572,1.8452
0.2505,627,2.0226
0.2555,581,1.8742
0.2602,488,1.5742
0.2649,486,1.5677
0.2695,550,1.7742
0.2741,541,1.7452
0.2787,454,1.4645
0.2833,418,1.3484
0.2878,485,1.5645
0.2925,517,1.6677
0.2972,451,1.4548
0.3020,392,1.2645
0.3073,459,1.4806
0.3270,454,1.4645
0.3490,493,1.5903
0.3535,512,1.6516
0.3580,445,1.4355
0.3625,404,1.3032
0.3669,465,1.5000
0.3714,524,1.6903
0.3759,490,1.5806
0.3804,419,1.3516
0.3849,436,1.4065
0.3893,514,1.6581
0.3938,526,1.6968
0.3983,454,1.4645
0.4027,419,1.3516
0.4072,483,1.5581
0.4116,536,1.7290
0.4160,499,1.6097
0.4207,424,1.3677
0.4253,448,1.4452
0.4297,525,1.6935
0.4342,529,1.7065
0.4386,455,1.4677
0.4431,426,1.3742
0.4475,493,1.5903
0.4520,539,1.7387
0.4565,494,1.5935
0.4609,425,1.3710
0.4653,450,1.4516
0.4697,526,1.6968
0.4742,526,1.6968
0.4786,452,1.4581
0.4831,424,1.3677
0.4876,492,1.5871
0.4920,541,1.7452
0.4965,495,1.5968
0.5010,425,1.3710
0.5054,453,1.4613
0.5098,528,1.7032
0.5143,529,1.7065
0.5187,455,1.4677
0.5232,431,1.3903
0.5277,501,1.6161
0.5321,543,1.7516
0.5366,498,1.6065
0.5410,433,1.3968
0.5455,463,1.4935
0.5536,542,1.7484
0.5581,474,1.5290
0.5626,437,1.4097
0.5670,496,1.6000
0.5714,554,1.7871
0.5759,520,1.6774
0.5803,449,1.4484
0.5847,461,1.4871
0.5892,538,1.7355
0.5936,553,1.7839
0.5981,484,1.5613
0.6025,445,1.4355
0.6069,503,1.6226
0.6114,561,1.8097
0.6159,527,1.7000
0.6204,455,1.4677
0.6248,467,1.5065
0.6292,542,1.7484
0.6337,555,1.7903
0.6381,486,1.5677
0.6426,446,1.4387
0.6470,506,1.6323
0.6514,562,1.8129
0.6558,531,1.7129
0.6603,456,1.4710
0.6647,467,1.5065
0.6692,543,1.7516
0.6736,558,1.8000
0.6781,492,1.5871
0.6825,448,1.4452
0.6869,506,1.6323
0.6914,564,1.8194
0.6959,535,1.7258
0.7003,464,1.4968
0.7048,479,1.5452
0.7092,565,1.8226
0.7137,582,1.8774
0.7181,516,1.6645
0.7227,486,1.5677
0.7271,559,1.8032
0.7315,619,1.9968
0.7360,576,1.8581
0.7405,494,1.5935
0.7449,500,1.6129
0.7493,572,1.8452
0.7538,582,1.8774
0.7582,509,1.6419
0.7627,463,1.4935
0.7671,515,1.6613
0.7714,567,1.8290
0.7758,534,1.7226
0.7801,457,1.4742
0.7845,458,1.4774
0.7888,534,1.7226
0.7931,558,1.8000
0.7975,498,1.6065
0.8018,445,1.4355
0.8061,487,1.5710
0.8104,556,1.7935
0.8148,545,1.7581
0.8191,469,1.5129
0.8235,448,1.4452
0.8279,514,1.6581
0.8322,547,1.7645
0.8366,482,1.5548
0.8409,401,1.2935
0.8453,427,1.3774
0.8496,641,2.0677
0.8579,724,2.3355
0.8623,831,2.6806
0.8666,999,3.2226
0.8709,1003,3.2355
0.8753,1003,3.2355
0.8796,994,3.2065
0.8840,809,2.6097
0.8883,641,2.0677
0.8927,536,1.7290
0.8970,435,1.4032
0.9014,371,1.1968
0.9057,415,1.3387
0.9101,503,1.6226
0.9144,507,1.6355
0.9188,434,1.4000
0.9232,403,1.3000
0.9276,470,1.5161
0.9319,518,1.6710
0.9373,460,1.4839
0.9418,404,1.3032
0.9461,447,1.4419
0.9504,520,1.6774
0.9547,516,1.6645
0.9591,444,1.4323
0.9634,422,1.3613
0.9677,492,1.5871
0.9720,540,1.7419
0.9764,503,1.6226
0.9807,436,1.4065
0.9851,455,1.4677
0.9895,532,1.7161
0.9938,547,1.7645
0.9981,485,1.5645
1.0024,447,1.4419
1.0068,504,1.6258
1.0111,570,1.8387
1.0155,550,1.7742
1.0198,479,1.5452
1.0242,478,1.5419
1.0286,557,1.7968
1.0330,592,1.9097
1.0373,543,1.7516
1.0416,492,1.5871
1.0460,535,1.7258
1.0503,612,1.9742
1.0546,616,1.9871
1.0590,548,1.7677
1.0633,528,1.7032
1.0676,602,1.9419
1.0720,658,2.1226
1.0763,624,2.0129
1.0806,558,1.8000
1.0850,576,1.8581
1.0893,659,2.1258
1.0937,680,2.1935
1.0980,616,1.9871
1.1024,572,1.8452
1.1067,622,2.0065
1.1110,687,2.2161
1.1154,663,2.1387
1.1197,578,1.8645
1.1241,558,1.8000
1.1285,617,1.9903
1.1329,634,2.0452
1.1375,554,1.7871
1.1421,482,1.5548
1.1466,515,1.6613
1.1511,564,1.8194
1.1556,525,1.6935
1.1601,436,1.4065
1.1646,430,1.3871
1.1690,499,1.6097
1.1735,513,1.6548
1.1779,442,1.4258
1.1825,392,1.2645
1.1870,445,1.4355
1.1914,503,1.6226
1.1959,472,1.5226
1.2004,397,1.2806
1.2049,406,1.3097
1.2093,485,1.5645
1.2139,500,1.6129
1.2184,429,1.3839
1.2229,394,1.2710
1.2274,458,1.4774
1.2318,513,1.6548
1.2363,474,1.5290
1.2408,404,1.3032
1.2453,424,1.3677
1.2498,503,1.6226
1.2542,511,1.6484
1.2587,437,1.4097
1.2633,408,1.3161
1.2678,478,1.5419
1.2723,525,1.6935
1.2768,479,1.5452
1.2813,414,1.3355
1.2858,445,1.4355
1.2903,522,1.6839
1.2947,516,1.6645
1.2991,442,1.4258
1.3036,421,1.3581
1.3081,494,1.5935
1.3125,535,1.7258
1.3169,486,1.5677
1.3216,419,1.3516
1.3261,457,1.4742
1.3305,528,1.7032
1.3350,518,1.6710
1.3396,440,1.4194
1.3441,431,1.3903
1.3486,506,1.6323
1.3532,534,1.7226
1.3577,473,1.5258
1.3622,419,1.3516
1.3667,468,1.5097
1.3713,533,1.7194
1.3758,509,1.6419
1.3802,433,1.3968
1.3846,435,1.4032
1.3890,512,1.6516
1.3935,533,1.7194
1.3980,467,1.5065
1.4024,421,1.3581
1.4068,473,1.5258
1.4112,534,1.7226
1.4156,516,1.6645
1.4200,441,1.4226
1.4244,439,1.4161
1.4287,514,1.6581
1.4332,539,1.7387
1.4375,484,1.5613
1.4418,429,1.3839
1.4462,467,1.5065
1.4539,539,1.7387
1.4584,470,1.5161
1.4628,432,1.3935
1.4672,490,1.5806
1.4715,546,1.7613
1.4758,519,1.6742
1.4802,443,1.4290
1.4846,444,1.4323
1.4891,522,1.6839
1.4935,546,1.7613
1.4978,485,1.5645
1.5021,435,1.4032
1.5065,479,1.5452
1.5108,545,1.7581
1.5151,535,1.7258
1.5195,459,1.4806
1.5239,445,1.4355
1.5283,518,1.6710
1.5327,556,1.7935
1.5370,508,1.6387
1.5414,446,1.4387
1.5457,474,1.5290
1.5500,548,1.7677
1.5544,550,1.7742
1.5588,478,1.5419
1.5632,446,1.4387
1.5675,509,1.6419
1.5719,562,1.8129
1.5762,528,1.7032
1.5806,456,1.4710
1.5850,465,1.5000
1.5893,539,1.7387
1.5936,561,1.8097
1.5980,499,1.6097
1.6023,449,1.4484
1.6066,495,1.5968
1.6110,562,1.8129
1.6154,545,1.7581
1.6197,470,1.5161
1.6242,461,1.4871
1.6285,537,1.7323
1.6330,573,1.8484
1.6374,521,1.6806
1.6418,469,1.5129
1.6462,514,1.6581
1.6506,586,1.8903
1.6550,581,1.8742
1.6594,518,1.6710
1.6638,509,1.6419
1.6681,575,1.8548
1.6723,609,1.9645
1.6766,561,1.8097
1.6809,484,1.5613
1.6852,493,1.5903
1.6895,566,1.8258
1.6938,580,1.8710
1.6981,507,1.6355
1.7024,452,1.4581
1.7067,495,1.5968
1.7109,557,1.7968
1.7152,541,1.7452
1.7195,463,1.4935
1.7237,443,1.4290
1.7280,512,1.6516
1.7322,557,1.7968
1.7364,521,1.6806
1.7407,449,1.4484
1.7449,458,1.4774
1.7491,533,1.7194
1.7535,554,1.7871
1.7578,493,1.5903
1.7620,437,1.4097
1.7663,468,1.5097
1.7706,520,1.6774
1.7748,496,1.6000
1.7791,422,1.3613
1.7833,421,1.3581
1.7876,561,1.8097
1.7919,744,2.4000
1.7962,869,2.8032
1.8006,950,3.0645
1.8049,1001,3.2290
1.8092,1003,3.2355
1.8135,1002,3.2323
1.8178,928,2.9935
1.8221,653,2.1065
1.8264,510,1.6452
1.8307,498,1.6065
1.8350,471,1.5194
1.8394,406,1.3097
1.8437,396,1.2774
1.8481,474,1.5290
1.8525,523,1.6871
1.8569,476,1.5355
1.8613,408,1.3161
1.8656,432,1.3935
1.8700,509,1.6419
1.8743,519,1.6742
1.8787,451,1.4548
1.8831,416,1.3419
1.8875,476,1.5355
1.8918,532,1.7161
1.8962,504,1.6258
1.9005,434,1.4000
1.9049,442,1.4258
1.9093,522,1.6839
1.9137,545,1.7581
1.9180,486,1.5677
1.9224,439,1.4161
1.9268,491,1.5839
1.9311,560,1.8065
1.9355,545,1.7581
1.9399,472,1.5226
1.9442,465,1.5000
1.9486,542,1.7484
1.9530,582,1.8774
1.9574,533,1.7194
1.9617,476,1.5355
1.9660,512,1.6516
1.9707,593,1.9129
1.9751,592,1.9097
1.9794,523,1.6871
1.9837,504,1.6258
1.9880,577,1.8613
1.9924,631,2.0355
1.9968,598,1.9290
2.0011,535,1.7258
2.0054,559,1.8032
2.0097,642,2.0710
2.0141,663,2.1387
2.0184,602,1.9419
2.0227,563,1.8161
2.0270,617,1.9903
2.0313,686,2.2129
2.0356,668,2.1548
2.0399,591,1.9065
2.0442,581,1.8742
2.0485,651,2.1000
2.0529,682,2.2000
2.0572,625,2.0161
2.0615,546,1.7613
2.0658,555,1.7903
2.0701,615,1.9839
2.0744,604,1.9484
2.0787,516,1.6645
2.0831,461,1.4871
2.0874,507,1.6355
2.0917,552,1.7806
2.0961,513,1.6548
2.1004,427,1.3774
2.1047,418,1.3484
2.1090,486,1.5677
2.1133,509,1.6419
2.1176,449,1.4484
2.1219,389,1.2548
2.1262,422,1.3613
2.1305,494,1.5935
2.1348,492,1.5871
2.1391,419,1.3516
2.1434,389,1.2548
2.1477,453,1.4613
2.1521,507,1.6355
2.1564,473,1.5258
2.1607,403,1.3000
2.1649,410,1.3226
2.1692,486,1.5677
2.1735,510,1.6452
2.1779,452,1.4581
2.1822,399,1.2871
2.1865,440,1.4194
2.1908,512,1.6516
2.1952,506,1.6323
2.1995,433,1.3968
2.2038,411,1.3258
2.2081,479,1.5452
2.2125,526,1.6968
2.2168,485,1.5645
2.2212,416,1.3419
2.2255,435,1.4032
2.2298,512,1.6516
2.2342,525,1.6935
2.2385,458,1.4774
2.2428,415,1.3387
2.2471,466,1.5032
2.2514,532,1.7161
2.2557,511,1.6484
2.2600,434,1.4000
2.2643,426,1.3742
2.2686,497,1.6032
2.2731,534,1.7226
2.2774,480,1.5484
2.2817,416,1.3419
2.2860,446,1.4387
2.2903,520,1.6774
2.2946,522,1.6839
2.2989,449,1.4484
2.3032,414,1.3355
2.3076,474,1.5290
2.3119,531,1.7129
2.3162,500,1.6129
2.3206,425,1.3710
2.3249,429,1.3839
2.3292,503,1.6226
2.3336,528,1.7032
2.3379,470,1.5161
2.3422,416,1.3419
2.3465,456,1.4710
2.3531,535,1.7258
2.3575,482,1.5548
2.3618,421,1.3581
2.3661,452,1.4581
2.3704,528,1.7032
2.3748,528,1.7032
2.3791,456,1.4710
2.3834,424,1.3677
2.3877,484,1.5613
2.3919,538,1.7355
2.3963,507,1.6355
2.4006,435,1.4032
2.4049,439,1.4161
2.4092,516,1.6645
2.4135,544,1.7548
2.4178,487,1.5710
2.4221,429,1.3839
2.4264,464,1.4968
2.4307,538,1.7355
2.4350,534,1.7226
2.4393,462,1.4903
2.4436,435,1.4032
2.4480,500,1.6129
2.4523,551,1.7774
2.4566,517,1.6677
2.4609,446,1.4387
2.4652,455,1.4677
2.4695,532,1.7161
2.4738,554,1.7871
2.4781,492,1.5871
2.4824,439,1.4161
2.4867,482,1.5548
2.4910,551,1.7774
2.4953,540,1.7419
2.4996,468,1.5097
2.5039,446,1.4387
2.5082,513,1.6548
2.5125,561,1.8097
2.5168,522,1.6839
2.5211,453,1.4613
2.5254,468,1.5097
2.5297,545,1.7581
2.5340,561,1.8097
2.5383,495,1.5968
2.5427,448,1.4452
2.5470,497,1.6032
2.5512,566,1.8258
2.5556,555,1.7903
2.5599,489,1.5774
2.5642,476,1.5355
2.5685,551,1.7774
2.5728,599,1.9323
2.5771,563,1.8161
2.5813,505,1.6290
2.5856,520,1.6774
2.5900,588,1.8968
2.5943,592,1.9097
2.5986,518,1.6710
2.6030,472,1.5226
2.6073,521,1.6806
2.6116,575,1.8548
2.6159,546,1.7613
2.6202,466,1.5032
2.6245,454,1.4645
2.6288,525,1.6935
2.6331,558,1.8000
2.6374,506,1.6323
2.6417,442,1.4258
2.6460,470,1.5161
2.6504,544,1.7548
2.6578,497,1.6032
2.6621,438,1.4129
2.6664,473,1.5258
2.6707,545,1.7581
2.6751,540,1.7419
2.6794,462,1.4903
2.6837,427,1.3774
2.6881,473,1.5258
2.6924,510,1.6452
2.6967,477,1.5387
2.7010,450,1.4516
2.7053,561,1.8097
2.7096,786,2.5355
2.7139,963,3.1065
2.7182,1001,3.2290
2.7225,1000,3.2258
2.7268,1003,3.2355
2.7311,999,3.2226
2.7354,863,2.7839
2.7397,579,1.8677
2.7439,423,1.3645
2.7482,441,1.4226
2.7525,489,1.5774
2.7568,462,1.4903
2.7611,406,1.3097
2.7655,423,1.3645
2.7698,499,1.6097
2.7741,516,1.6645
2.7783,451,1.4548
2.7826,401,1.2935
2.7869,448,1.4452
2.7912,519,1.6742
2.7955,508,1.6387
2.7997,436,1.4065
2.8040,417,1.3452
2.8083,487,1.5710
2.8126,538,1.7355
2.8169,500,1.6129
2.8211,432,1.3935
2.8254,446,1.4387
2.8297,522,1.6839
2.8340,545,1.7581
2.8383,485,1.5645
2.8426,439,1.4161
2.8469,487,1.5710
2.8512,556,1.7935
2.8555,550,1.7742
2.8598,481,1.5516
2.8641,464,1.4968
2.8685,539,1.7387
2.8729,587,1.8935
2.8773,541,1.7452
2.8818,481,1.5516
2.8860,513,1.6548
2.8904,591,1.9065
2.8947,604,1.9484
2.8990,541,1.7452
2.9033,511,1.6484
2.9076,572,1.8452
2.9119,637,2.0548
2.9163,618,1.9935
2.9206,553,1.7839
2.9250,559,1.8032
2.9293,641,2.0677
2.9336,676,2.1806
2.9380,623,2.0097
2.9423,568,1.8323
2.9467,612,1.9742
2.9510,686,2.2129
2.9553,682,2.2000
2.9596,609,1.9645
2.9640,581,1.8742
2.9683,641,2.0677
2.9726,681,2.1968
2.9770,628,2.0258
2.9814,540,1.7419
2.9857,540,1.7419
2.9900,599,1.9323
2.9944,595,1.9194
2.9987,506,1.6323
3.0032,448,1.4452
3.0075,489,1.5774
3.0119,538,1.7355
3.0162,505,1.6290
3.0205,421,1.3581
3.0249,411,1.3258
3.0292,480,1.5484
3.0335,507,1.6355
3.0378,449,1.4484
3.0421,386,1.2452
3.0464,417,1.3452
3.0506,489,1.5774
3.0550,488,1.5742
3.0593,417,1.3452
3.0636,382,1.2323
3.0678,442,1.4258
3.0721,500,1.6129
3.0764,472,1.5226
3.0807,401,1.2935
3.0850,403,1.3000
3.0893,480,1.5484
3.0936,510,1.6452
3.0979,453,1.4613
3.1022,396,1.2774
3.1065,430,1.3871
3.1108,506,1.6323
3.1151,508,1.6387
3.1194,437,1.4097
3.1237,405,1.3065
3.1280,468,1.5097
3.1323,524,1.6903
3.1366,492,1.5871
3.1409,420,1.3548
3.1452,424,1.3677
3.1495,500,1.6129
3.1538,527,1.7000
3.1581,469,1.5129
3.1624,414,1.3355
3.1667,453,1.4613
3.1710,526,1.6968
3.1753,520,1.6774
3.1796,448,1.4452
3.1839,423,1.3645
3.1882,488,1.5742
3.1925,536,1.7290
3.1968,498,1.6065
3.2011,426,1.3742
3.2054,433,1.3968
3.2097,510,1.6452
3.2140,529,1.7065
3.2184,468,1.5097
3.2227,416,1.3419
3.2272,464,1.4968
3.2317,529,1.7065
3.2360,511,1.6484
3.2404,435,1.4032
3.2447,427,1.3774
3.2490,501,1.6161
3.2540,534,1.7226
3.2584,470,1.5161
3.2628,420,1.3548
3.2671,465,1.5000
3.2714,535,1.7258
3.2758,520,1.6774
3.2801,445,1.4355
3.2844,428,1.3806
3.2887,498,1.6065
3.2930,540,1.7419
3.2973,495,1.5968
3.3017,429,1.3839
3.3060,452,1.4581
3.3103,527,1.7000
3.3146,536,1.7290
3.3189,470,1.5161
3.3232,429,1.3839
3.3275,483,1.5581
3.3318,545,1.7581
3.3361,524,1.6903
3.3405,448,1.4452
3.3448,442,1.4258
3.3491,516,1.6645
3.3534,551,1.7774
3.3577,499,1.6097
3.3620,438,1.4129
3.3663,464,1.4968
3.3706,538,1.7355
3.3749,544,1.7548
3.3792,475,1.5323
3.3834,438,1.4129
3.3877,494,1.5935
3.3920,551,1.7774
3.3963,528,1.7032
3.4006,455,1.4677
3.4049,451,1.4548
3.4093,526,1.6968
3.4136,560,1.8065
3.4179,506,1.6323
3.4221,448,1.4452
3.4264,482,1.5548
3.4307,557,1.7968
3.4350,566,1.8258
3.4393,502,1.6194
3.4435,468,1.5097
3.4478,532,1.7161
3.4522,602,1.9419
3.4565,585,1.8871
3.4608,515,1.6613
3.4651,506,1.6323
3.4694,574,1.8516
3.4737,592,1.9097
3.4780,533,1.7194
3.4823,470,1.5161
3.4866,499,1.6097
3.4910,562,1.8129
3.4953,553,1.7839
3.4996,477,1.5387
3.5038,444,1.4323
3.5081,504,1.6258
3.5125,555,1.7903
3.5168,519,1.6742
3.5211,446,1.4387
3.5254,449,1.4484
3.5296,527,1.7000
3.5339,551,1.7774
3.5382,493,1.5903
3.5425,436,1.4065
3.5469,475,1.5323
3.5539,548,1.7677
3.5582,483,1.5581
3.5625,410,1.3226
3.5668,435,1.4032
3.5711,508,1.6387
3.5754,544,1.7548
3.5797,564,1.8194
3.5840,679,2.1903
3.5883,880,2.8387
3.5927,998,3.2194
3.5970,1002,3.2323
3.6013,1003,3.2355
3.6056,985,3.1774
3.6098,861,2.7774
3.6141,682,2.2000
3.6184,490,1.5806
3.6227,375,1.2097
3.6269,403,1.3000
3.6312,485,1.5645
3.6355,490,1.5806
3.6398,426,1.3742
3.6441,404,1.3032
3.6484,470,1.5161
3.6526,518,1.6710
3.6570,482,1.5548
3.6613,413,1.3323
3.6656,424,1.3677
3.6699,502,1.6194
3.6742,525,1.6935
3.6785,465,1.5000
3.6829,417,1.3452
3.6872,466,1.5032
3.6916,535,1.7258
3.6960,523,1.6871
3.7004,450,1.4516
3.7047,442,1.4258
3.7090,517,1.6677
3.7133,553,1.7839
3.7177,509,1.6419
3.7220,449,1.4484
3.7263,476,1.5355
3.7306,555,1.7903
3.7349,566,1.8258
3.7392,500,1.6129
3.7435,466,1.5032
3.7478,526,1.6968
3.7521,589,1.9000
3.7565,570,1.8387
3.7608,499,1.6097
3.7651,502,1.6194
3.7694,581,1.8742
3.7737,619,1.9968
3.7780,568,1.8323
3.7823,516,1.6645
3.7866,554,1.7871
3.7910,635,2.0484
3.7953,643,2.0742
3.7996,574,1.8516
3.8038,550,1.7742
3.8082,618,1.9935
3.8125,679,2.1903
3.8168,648,2.0903
3.8211,578,1.8645
3.8254,586,1.8903
3.8298,662,2.1355
3.8342,689,2.2226
3.8389,616,1.9871
3.8433,565,1.8226
3.8477,609,1.9645
3.8522,657,2.1194
3.8567,615,1.9839
3.8610,523,1.6871
3.8654,508,1.6387
3.8697,567,1.8290
3.8741,575,1.8548
3.8784,502,1.6194
3.8827,435,1.4032
3.8871,465,1.5000
3.8914,527,1.7000
3.8957,511,1.6484
3.9000,430,1.3871
3.9043,404,1.3032
3.9087,468,1.5097
3.9131,509,1.6419
3.9175,462,1.4903
3.9218,393,1.2677
3.9262,415,1.3387
3.9306,492,1.5871
3.9350,501,1.6161
3.9394,431,1.3903
3.9437,396,1.2774
3.9482,458,1.4774
3.9527,512,1.6516
3.9570,480,1.5484
3.9613,409,1.3194
3.9656,419,1.3516
3.9699,497,1.6032
3.9742,521,1.6806
3.9785,461,1.4871
3.9829,410,1.3226
3.9873,458,1.4774
3.9917,527,1.7000
3.9961,511,1.6484
4.0004,437,1.4097
4.0049,427,1.3774
4.0092,501,1.6161
4.0136,538,1.7355
4.0180,486,1.5677
4.0224,427,1.3774
4.0269,463,1.4935
4.0313,535,1.7258
4.0357,528,1.7032
4.0403,449,1.4484
4.0448,434,1.4000
4.0492,506,1.6323
4.0536,541,1.7452
4.0580,487,1.5710
4.0624,428,1.3806
4.0667,460,1.4839
4.0711,533,1.7194
4.0755,527,1.7000
4.0798,453,1.4613
4.0841,425,1.3710
4.0885,488,1.5742
4.0928,540,1.7419
4.0973,497,1.6032
4.1017,428,1.3806
4.1061,447,1.4419
4.1107,525,1.6935
4.1152,529,1.7065
4.1195,459,1.4806
4.1239,425,1.3710
4.1283,488,1.5742
4.1328,540,1.7419
4.1371,502,1.6194
4.1415,432,1.3935
4.1458,444,1.4323
4.1502,522,1.6839
4.1547,537,1.7323
4.1591,470,1.5161
4.1634,428,1.3806
4.1678,481,1.5516
4.1721,542,1.7484
4.1764,521,1.6806
4.1808,446,1.4387
4.1851,441,1.4226
4.1894,516,1.6645
4.1938,549,1.7710
4.1981,496,1.6000
4.2025,436,1.4065
4.2069,472,1.5226
4.2112,544,1.7548
4.2156,540,1.7419
4.2199,465,1.5000
4.2242,438,1.4129
4.2285,504,1.6258
4.2329,555,1.7903
4.2373,518,1.6710
4.2416,448,1.4452
4.2459,463,1.4935
4.2503,538,1.7355
4.2546,554,1.7871
4.2589,490,1.5806
4.2632,441,1.4226
4.2675,489,1.5774
4.2718,555,1.7903
4.2762,539,1.7387
4.2806,465,1.5000
4.2849,453,1.4613
4.2892,528,1.7032
4.2936,564,1.8194
4.2980,513,1.6548
4.3023,449,1.4484
4.3067,479,1.5452
4.3110,550,1.7742
4.3153,554,1.7871
4.3196,483,1.5581
4.3240,450,1.4516
4.3283,512,1.6516
4.3326,566,1.8258
4.3370,536,1.7290
4.3413,467,1.5065
4.3457,478,1.5419
4.3500,561,1.8097
4.3543,587,1.8935
4.3586,527,1.7000
4.3630,482,1.5548
4.3673,533,1.7194
4.3715,613,1.9774
4.3758,608,1.9613
4.3801,527,1.7000
4.3843,493,1.5903
4.3886,549,1.7710
4.3928,592,1.9097
4.3971,555,1.7903
4.4013,478,1.5419
4.4055,476,1.5355
4.4097,544,1.7548
4.4140,567,1.8290
4.4182,509,1.6419
4.4225,447,1.4419
4.4267,479,1.5452
4.4310,551,1.7774
4.4352,553,1.7839
4.4395,485,1.5645
4.4437,447,1.4419
4.4479,499,1.6097
4.4541,558,1.8000
4.4584,498,1.6065
4.4627,442,1.4258
4.4670,474,1.5290
4.4712,540,1.7419
4.4756,524,1.6903
4.4798,433,1.3968
4.4841,396,1.2774
4.4883,476,1.5355
4.4925,599,1.9323
4.4967,696,2.2452
4.5010,780,2.5161
4.5053,922,2.9742
4.5095,1003,3.2355
4.5137,1004,3.2387
4.5179,1000,3.2258
4.5222,961,3.1000
4.5263,755,2.4355
4.5305,617,1.9903
4.5347,521,1.6806
4.5389,423,1.3645
4.5431,376,1.2129
4.5473,430,1.3871
4.5515,511,1.6484
4.5557,513,1.6548
4.5599,440,1.4194
4.5641,408,1.3161
4.5684,467,1.5065
4.5726,523,1.6871
4.5767,497,1.6032
4.5810,424,1.3677
4.5852,420,1.3548
4.5894,495,1.5968
4.5936,535,1.7258
4.5978,491,1.5839
4.6020,426,1.3742
4.6062,443,1.4290
4.6104,520,1.6774
4.6146,541,1.7452
4.6188,484,1.5613
4.6230,434,1.4000
4.6272,476,1.5355
4.6314,550,1.7742
4.6357,546,1.7613
4.6399,478,1.5419
4.6442,451,1.4548
4.6484,516,1.6645
4.6525,574,1.8516
4.6567,554,1.7871
4.6609,483,1.5581
4.6651,479,1.5452
4.6694,554,1.7871
4.6735,596,1.9226
4.6777,557,1.7968
4.6819,496,1.6000
4.6861,518,1.6710
4.6903,598,1.9290
4.6945,625,2.0161
4.6987,571,1.8419
4.7029,521,1.6806
4.7071,564,1.8194
4.7113,643,2.0742
4.7155,651,2.1000
4.7197,586,1.8903
4.7240,558,1.8000
4.7282,620,2.0000
4.7324,681,2.1968
4.7366,664,2.1419
4.7408,590,1.9032
4.7450,580,1.8710
4.7493,652,2.1032
4.7536,688,2.2194
4.7578,638,2.0581
4.7620,563,1.8161
4.7663,571,1.8419
4.7706,634,2.0452
4.7748,632,2.0387
4.7790,554,1.7871
4.7832,487,1.5710
4.7875,513,1.6548
4.7917,563,1.8161
4.7960,542,1.7484
4.8002,457,1.4742
4.8044,421,1.3581
4.8086,476,1.5355
4.8128,520,1.6774
4.8170,481,1.5516
4.8213,405,1.3065
4.8255,400,1.2903
4.8297,470,1.5161
4.8339,503,1.6226
4.8381,450,1.4516
4.8423,388,1.2516
4.8465,412,1.3290
4.8507,488,1.5742
4.8549,501,1.6161
4.8591,437,1.4097
4.8633,389,1.2548
4.8675,433,1.3968
4.8718,500,1.6129
4.8760,492,1.5871
4.8801,423,1.3645
4.8843,397,1.2806
4.8885,459,1.4806
4.8927,515,1.6613
4.8969,489,1.5774
4.9011,418,1.3484
4.9053,413,1.3323
4.9095,486,1.5677
4.9137,526,1.6968
4.9179,480,1.5484
4.9221,416,1.3419
4.9263,435,1.4032
4.9305,510,1.6452
4.9347,528,1.7032
4.9389,467,1.5065
4.9431,417,1.3452
4.9473,457,1.4742
4.9515,527,1.7000
4.9557,525,1.6935
4.9599,453,1.4613
4.9641,422,1.3613
4.9683,481,1.5516
4.9725,536,1.7290
4.9767,511,1.6484
4.9809,437,1.4097
4.9851,426,1.3742
4.9893,495,1.5968
4.9936,535,1.7258
4.9978,488,1.5742
5.0020,422,1.3613
5.0063,437,1.4097
5.0106,515,1.6613
5.0177,489,1.5774
5.0220,423,1.3645
5.0262,439,1.4161
5.0305,516,1.6645
5.0347,533,1.7194
5.0389,469,1.5129
5.0431,416,1.3419
5.0473,456,1.4710
5.0540,535,1.7258
5.0583,480,1.5484
5.0626,421,1.3581
5.0668,449,1.4484
5.0710,525,1.6935
5.0752,531,1.7129
5.0794,464,1.4968
5.0837,422,1.3613
5.0880,477,1.5387
5.0923,538,1.7355
5.0966,516,1.6645
5.1008,443,1.4290
5.1051,430,1.3871
5.1093,503,1.6226
5.1136,544,1.7548
5.1179,499,1.6097
5.1222,432,1.3935
5.1265,453,1.4613
5.1308,529,1.7065
5.1351,539,1.7387
5.1393,472,1.5226
5.1436,430,1.3871
5.1478,477,1.5387
5.1519,542,1.7484
5.1561,532,1.7161
5.1603,459,1.4806
5.1645,435,1.4032
5.1687,499,1.6097
5.1730,551,1.7774
5.1772,519,1.6742
5.1813,446,1.4387
5.1856,445,1.4355
5.1899,519,1.6742
5.1941,549,1.7710
5.1984,497,1.6032
5.2026,437,1.4097
5.2068,462,1.4903
5.2110,536,1.7290
5.2152,547,1.7645
5.2194,479,1.5452
5.2236,438,1.4129
5.2279,486,1.5677
5.2320,553,1.7839
5.2362,541,1.7452
5.2404,470,1.5161
5.2446,451,1.4548
5.2488,521,1.6806
5.2530,578,1.8645
5.2572,548,1.7677
5.2614,479,1.5452
5.2656,487,1.5710
5.2698,573,1.8484
5.2740,612,1.9742
5.2782,559,1.8032
5.2824,489,1.5774
5.2867,504,1.6258
5.2908,571,1.8419
5.2950,581,1.8742
5.2992,514,1.6581
5.3034,461,1.4871
5.3076,496,1.6000
5.3118,555,1.7903
5.3160,545,1.7581
5.3202,469,1.5129
5.3244,438,1.4129
5.3286,499,1.6097
5.3328,551,1.7774
5.3370,526,1.6968
5.3412,453,1.4613
5.3454,448,1.4452
5.3497,519,1.6742
5.3546,551,1.7774
5.3589,490,1.5806
5.3632,437,1.4097
5.3675,478,1.5419
5.3718,544,1.7548
5.3761,527,1.7000
5.3804,434,1.4000
5.3847,397,1.2806
5.3889,470,1.5161
5.3933,565,1.8226
5.3976,630,2.0323
5.4019,706,2.2774
5.4062,869,2.8032
5.4106,1002,3.2323
5.4150,1004,3.2387
5.4194,1002,3.2323
5.4239,974,3.1419
5.4284,786,2.5355
5.4328,627,2.0226
5.4372,484,1.5613
5.4415,377,1.2161
5.4459,386,1.2452
5.4503,476,1.5355
5.4547,510,1.6452
5.4590,452,1.4581
5.4633,401,1.2935
5.4677,443,1.4290
5.4719,511,1.6484
5.4763,501,1.6161
5.4806,427,1.3774
5.4849,411,1.3258
5.4893,482,1.5548
5.4936,527,1.7000
5.4979,485,1.5645
5.5023,418,1.3484
5.5067,443,1.4290
5.5111,526,1.6968
5.5157,534,1.7226
5.5200,465,1.5000
5.5244,436,1.4065
5.5288,502,1.6194
5.5332,557,1.7968
5.5375,522,1.6839
5.5419,453,1.4613
5.5463,469,1.5129
5.5506,547,1.7645
5.5550,571,1.8419
5.5593,511,1.6484
5.5637,468,1.5097
5.5680,524,1.6903
5.5723,594,1.9161
5.5767,579,1.8677
5.5810,508,1.6387
5.5854,507,1.6355
5.5898,586,1.8903
5.5942,624,2.0129
5.5985,577,1.8613
5.6030,525,1.6935
5.6073,568,1.8323
5.6116,647,2.0871
5.6160,650,2.0968
5.6203,584,1.8839
5.6246,565,1.8226
5.6289,635,2.0484
5.6332,688,2.2194
5.6375,656,2.1161
5.6418,588,1.8968
5.6461,598,1.9290
5.6504,677,2.1839
5.6547,696,2.2452
5.6590,628,2.0258
5.6634,564,1.8194
5.6677,596,1.9226
5.6720,651,2.1000
5.6763,625,2.0161
5.6806,535,1.7258
5.6849,496,1.6000
5.6893,545,1.7581
5.6938,572,1.8452
5.6981,513,1.6548
5.7024,435,1.4032
5.7067,443,1.4290
5.7110,509,1.6419
5.7152,513,1.6548
5.7195,441,1.4226
5.7239,394,1.2710
5.7282,443,1.4290
5.7324,502,1.6194
5.7367,484,1.5613
5.7409,408,1.3161
5.7452,394,1.2710
5.7494,463,1.4935
5.7537,505,1.6290
5.7579,459,1.4806
5.7622,393,1.2677
5.7664,410,1.3226
5.7706,487,1.5710
5.7749,507,1.6355
5.7791,444,1.4323
5.7835,395,1.2742
5.7878,442,1.4258
5.7920,509,1.6419
5.7963,502,1.6194
5.8005,429,1.3839
5.8048,407,1.3129
5.8090,474,1.5290
5.8132,524,1.6903
5.8175,490,1.5806
5.8219,419,1.3516
5.8262,430,1.3871
5.8304,505,1.6290
5.8347,530,1.7097
5.8389,470,1.5161
5.8432,414,1.3355
5.8475,454,1.4645
5.8518,526,1.6968
5.8561,519,1.6742
5.8603,448,1.4452
5.8646,421,1.3581
5.8688,484,1.5613
5.8731,536,1.7290
5.8773,503,1.6226
5.8816,429,1.3839
5.8859,432,1.3935
5.8901,510,1.6452
5.8945,537,1.7323
5.8987,481,1.5516
5.9031,425,1.3710
5.9073,460,1.4839
5.9116,530,1.7097
5.9158,530,1.7097
5.9201,458,1.4774
5.9243,425,1.3710
5.9286,482,1.5548
5.9328,537,1.7323
5.9371,514,1.6581
5.9413,440,1.4194
5.9456,434,1.4000
5.9500,508,1.6387
5.9548,538,1.7355
5.9591,477,1.5387
5.9634,424,1.3677
5.9676,467,1.5065
5.9719,536,1.7290
5.9761,531,1.7129
5.9804,457,1.4742
5.9846,429,1.3839
5.9889,490,1.5806
5.9932,542,1.7484
5.9975,510,1.6452
6.0018,438,1.4129
6.0062,446,1.4387
6.0105,521,1.6806
6.0147,544,1.7548
6.0190,487,1.5710
6.0232,432,1.3935
6.0275,470,1.5161
6.0317,543,1.7516
6.0360,539,1.7387
6.0403,467,1.5065
6.0445,436,1.4065
6.0488,499,1.6097
6.0531,550,1.7742
6.0574,520,1.6774
6.0616,447,1.4419
6.0659,448,1.4452
6.0702,523,1.6871
6.0745,553,1.7839
6.0787,496,1.6000
6.0831,439,1.4161
6.0873,475,1.5323
6.0916,549,1.7710
6.0958,555,1.7903
6.1000,492,1.5871
6.1042,460,1.4839
6.1084,519,1.6742
6.1126,585,1.8871
6.1168,579,1.8677
6.1210,519,1.6742
6.1253,506,1.6323
6.1295,566,1.8258
6.1337,600,1.9355
6.1379,551,1.7774
6.1421,475,1.5323
6.1464,487,1.5710
6.1506,556,1.7935
6.1549,569,1.8355
6.1591,500,1.6129
6.1634,443,1.4290
6.1677,481,1.5516
6.1719,546,1.7613
6.1762,537,1.7323
6.1805,465,1.5000
6.1847,440,1.4194
6.1890,502,1.6194
6.1932,553,1.7839
6.1975,520,1.6774
6.2017,449,1.4484
6.2059,449,1.4484
6.2101,521,1.6806
6.2144,551,1.7774
6.2185,499,1.6097
6.2228,430,1.3871
6.2269,438,1.4129
6.2311,495,1.5968
6.2353,503,1.6226
6.2395,468,1.5097
6.2438,499,1.6097
6.2479,669,2.1581
6.2545,956,3.0839
6.2588,998,3.2194
6.2632,1000,3.2258
6.2675,1002,3.2323
6.2717,992,3.2000
6.2759,824,2.6581
6.2801,576,1.8581
6.2843,424,1.3677
6.2885,428,1.3806
6.2927,480,1.5484
6.2969,472,1.5226
6.3011,413,1.3323
6.3053,407,1.3129
6.3095,480,1.5484
6.3138,525,1.6935
6.3180,480,1.5484
6.3223,412,1.3290
6.3266,429,1.3839
6.3309,508,1.6387
6.3352,524,1.6903
6.3395,460,1.4839
6.3438,416,1.3419
6.3481,467,1.5065
6.3525,536,1.7290
6.3569,520,1.6774
6.3611,448,1.4452
6.3654,436,1.4065
6.3696,509,1.6419
6.3739,554,1.7871
6.3781,512,1.6516
6.3824,446,1.4387
6.3866,468,1.5097
6.3909,546,1.7613
6.3952,567,1.8290
6.3994,505,1.6290
6.4037,460,1.4839
6.4080,509,1.6419
6.4122,580,1.8710
6.4166,570,1.8387
6.4209,500,1.6129
6.4252,487,1.5710
6.4294,561,1.8097
6.4337,609,1.9645
6.4380,575,1.8548
6.4423,511,1.6484
6.4466,533,1.7194
6.4509,616,1.9871
6.4552,639,2.0613
6.4594,581,1.8742
6.4637,538,1.7355
6.4680,590,1.9032
6.4722,665,2.1452
6.4765,660,2.1290
6.4808,590,1.9032
6.4851,569,1.8355
6.4893,638,2.0581
6.4936,689,2.2226
6.4979,649,2.0935
6.5021,575,1.8548
6.5064,580,1.8710
6.5107,651,2.1000
6.5149,661,2.1323
6.5192,587,1.8935
6.5234,518,1.6710
6.5276,537,1.7323
6.5318,591,1.9065
6.5360,573,1.8484
6.5402,488,1.5742
6.5445,442,1.4258
6.5487,489,1.5774
6.5531,534,1.7226
6.5573,498,1.6065
6.5615,419,1.3516
6.5657,408,1.3161
6.5700,473,1.5258
6.5742,505,1.6290
6.5784,456,1.4710
6.5826,390,1.2581
6.5869,408,1.3161
6.5911,484,1.5613
6.5953,498,1.6065
6.5995,435,1.4032
6.6038,387,1.2484
6.6080,432,1.3935
6.6122,502,1.6194
6.6164,494,1.5935
6.6206,420,1.3548
6.6249,397,1.2806
6.6291,462,1.4903
6.6333,513,1.6548
6.6376,482,1.5548
6.6418,412,1.3290
6.6461,415,1.3387
6.6503,491,1.5839
6.6546,523,1.6871
6.6589,468,1.5097
6.6632,410,1.3226
6.6675,445,1.4355
6.6717,518,1.6710
6.6759,518,1.6710
6.6802,451,1.4548
6.6844,415,1.3387
6.6887,472,1.5226
6.6929,532,1.7161
6.6971,510,1.6452
6.7014,436,1.4065
6.7056,428,1.3806
6.7098,499,1.6097
6.7140,537,1.7323
6.7182,495,1.5968
6.7224,426,1.3742
6.7266,442,1.4258
6.7308,516,1.6645
6.7351,533,1.7194
6.7394,471,1.5194
6.7436,419,1.3516
6.7478,460,1.4839
6.7520,529,1.7065
6.7562,524,1.6903
6.7604,452,1.4581
6.7647,421,1.3581
6.7689,481,1.5516
6.7731,538,1.7355
6.7773,511,1.6484
6.7815,438,1.4129
6.7857,431,1.3903
6.7900,504,1.6258
6.7942,540,1.7419
6.7984,493,1.5903
6.8026,427,1.3774
6.8069,447,1.4419
6.8112,524,1.6903
6.8155,536,1.7290
6.8198,469,1.5129
6.8241,424,1.3677
6.8283,474,1.5290
6.8325,540,1.7419
6.8367,527,1.7000
6.8409,455,1.4677
6.8451,434,1.4000
6.8500,511,1.6484
6.8547,544,1.7548
6.8590,487,1.5710
6.8633,430,1.3871
6.8676,464,1.4968
6.8718,536,1.7290
6.8760,537,1.7323
6.8802,469,1.5129
6.8845,433,1.3968
6.8887,489,1.5774
6.8929,550,1.7742
6.8971,528,1.7032
6.9013,453,1.4613
6.9056,443,1.4290
6.9098,513,1.6548
6.9140,554,1.7871
6.9182,511,1.6484
6.9225,444,1.4323
6.9268,461,1.4871
6.9310,536,1.7290
6.9353,554,1.7871
6.9395,494,1.5935
6.9437,447,1.4419
6.9480,493,1.5903
6.9522,568,1.8323
6.9564,569,1.8355
6.9606,499,1.6097
6.9648,478,1.5419
6.9690,548,1.7677
6.9732,616,1.9871
6.9774,591,1.9065
6.9816,509,1.6419
6.9858,496,1.6000
6.9901,559,1.8032
6.9943,588,1.8968
6.9985,540,1.7419
7.0027,470,1.5161
7.0069,480,1.5484
7.0111,547,1.7645
7.0153,556,1.7935
7.0195,489,1.5774
7.0238,436,1.4065
7.0280,475,1.5323
7.0322,544,1.7548
7.0364,538,1.7355
7.0406,465,1.5000
7.0449,437,1.4097
7.0491,498,1.6065
7.0533,551,1.7774
7.0575,523,1.6871
7.0617,449,1.4484
7.0659,444,1.4323
7.0701,515,1.6613
7.0743,545,1.7581
7.0785,487,1.5710
7.0827,403,1.3000
7.0869,413,1.3323
7.0911,503,1.6226
7.0954,572,1.8452
7.0996,618,1.9935
7.1038,716,2.3097
7.1079,903,2.9129
7.1121,1001,3.2290
7.1164,1001,3.2290
7.1206,1001,3.2290
7.1248,990,3.1935
7.1290,840,2.7097
7.1333,668,2.1548
7.1375,507,1.6355
7.1417,386,1.2452
7.1459,378,1.2194
7.1506,471,1.5194
7.1553,505,1.6290
7.1596,446,1.4387
7.1639,400,1.2903
7.1681,444,1.4323
7.1723,512,1.6516
7.1765,506,1.6323
7.1807,429,1.3839
7.1853,410,1.3226
7.1895,480,1.5484
7.1938,527,1.7000
7.1980,491,1.5839
7.2022,424,1.3677
7.2064,435,1.4032
7.2106,512,1.6516
7.2148,541,1.7452
7.2191,488,1.5742
7.2233,432,1.3935
7.2276,469,1.5129
7.2319,544,1.7548
7.2362,545,1.7581
7.2405,477,1.5387
7.2448,451,1.4548
7.2492,519,1.6742
7.2536,574,1.8516
7.2579,543,1.7516
7.2622,474,1.5290
7.2666,489,1.5774
7.2710,571,1.8419
7.2753,593,1.9129
7.2795,536,1.7290
7.2838,490,1.5806
7.2881,538,1.7355
7.2924,610,1.9677
7.2967,608,1.9613
7.3009,542,1.7484
7.3052,526,1.6968
7.3095,600,1.9355
7.3138,653,2.1065
7.3181,622,2.0065
7.3224,559,1.8032
7.3267,576,1.8581
7.3310,657,2.1194
7.3353,683,2.2032
7.3395,623,2.0097
7.3438,574,1.8516
7.3481,616,1.9871
7.3524,686,2.2129
7.3567,673,2.1710
7.3610,595,1.9194
7.3652,564,1.8194
7.3695,616,1.9871
7.3737,650,2.0968
7.3780,598,1.9290
7.3823,508,1.6387
7.3865,498,1.6065
7.3908,555,1.7903
7.3951,564,1.8194
7.3993,490,1.5806
7.4036,423,1.3645
7.4080,452,1.4581
7.4125,513,1.6548
7.4168,495,1.5968
7.4213,412,1.3290
7.4258,397,1.2806
7.4303,469,1.5129
7.4347,500,1.6129
7.4391,442,1.4258
7.4434,382,1.2323
7.4478,419,1.3516
7.4522,492,1.5871
7.4566,486,1.5677
7.4610,410,1.3226
7.4654,391,1.2613
7.4698,461,1.4871
7.4742,504,1.6258
7.4785,460,1.4839
7.4829,397,1.2806
7.4873,423,1.3645
7.4916,500,1.6129
7.4960,504,1.6258
7.5004,435,1.4032
7.5047,402,1.2968
7.5091,465,1.5000
7.5135,520,1.6774
7.5178,488,1.5742
7.5222,415,1.3387
7.5266,424,1.3677
7.5310,503,1.6226
7.5356,522,1.6839
7.5400,456,1.4710
7.5443,415,1.3387
7.5487,470,1.5161
7.5532,531,1.7129
7.5575,506,1.6323
7.5619,432,1.3935
7.5663,434,1.4000
7.5707,511,1.6484
7.5751,537,1.7323
7.5795,475,1.5323
7.5839,423,1.3645
7.5883,468,1.5097
7.5927,535,1.7258
7.5970,518,1.6710
7.6014,443,1.4290
7.6058,433,1.3968
7.6102,507,1.6355
7.6146,542,1.7484
7.6189,488,1.5742
7.6233,425,1.3710
7.6276,456,1.4710
7.6320,530,1.7097
7.6364,528,1.7032
7.6407,454,1.4645
7.6451,429,1.3839
7.6495,494,1.5935
7.6539,544,1.7548
7.6583,503,1.6226
7.6627,433,1.3968
7.6671,452,1.4581
7.6714,530,1.7097
7.6758,541,1.7452
7.6802,471,1.5194
7.6845,429,1.3839
7.6888,485,1.5645
7.6932,546,1.7613
7.6975,519,1.6742
7.7019,444,1.4323
7.7062,443,1.4290
7.7106,519,1.6742
7.7149,546,1.7613
7.7193,489,1.5774
7.7236,433,1.3968
7.7280,470,1.5161
7.7323,544,1.7548
7.7367,537,1.7323
7.7410,465,1.5000
7.7453,442,1.4258
7.7505,524,1.6903
7.7556,551,1.7774
7.7600,484,1.5613
7.7643,442,1.4258
7.7687,494,1.5935
7.7731,558,1.8000
7.7774,535,1.7258
7.7817,460,1.4839
7.7860,454,1.4645
7.7903,527,1.7000
7.7945,564,1.8194
7.7988,514,1.6581
7.8030,449,1.4484
7.8072,470,1.5161
7.8115,543,1.7516
7.8157,558,1.8000
7.8199,499,1.6097
7.8243,456,1.4710
7.8285,515,1.6613
7.8328,581,1.8742
7.8371,568,1.8323
7.8413,500,1.6129
7.8456,494,1.5935
7.8499,573,1.8484
7.8542,616,1.9871
7.8584,565,1.8226
7.8627,491,1.5839
7.8670,500,1.6129
7.8712,571,1.8419
7.8755,585,1.8871
7.8797,519,1.6742
7.8839,459,1.4806
7.8881,492,1.5871
7.8923,555,1.7903
7.8965,549,1.7710
7.9007,476,1.5355
7.9049,443,1.4290
7.9091,502,1.6194
7.9133,559,1.8032
7.9175,531,1.7129
7.9217,457,1.4742
7.9259,450,1.4516
7.9301,522,1.6839
7.9344,562,1.8129
7.9386,517,1.6677
7.9428,449,1.4484
7.9470,461,1.4871
7.9513,529,1.7065
7.9555,530,1.7097
7.9597,449,1.4484
7.9639,393,1.2677
7.9681,450,1.4516
7.9723,583,1.8806
7.9766,697,2.2484
7.9808,777,2.5065
7.9850,892,2.8774
7.9892,1000,3.2258
7.9934,1002,3.2323
7.9977,1001,3.2290
8.0020,965,3.1129
8.0064,739,2.3839
8.0107,597,1.9258
8.0150,514,1.6581
8.0193,424,1.3677
8.0236,370,1.1935
8.0279,419,1.3516
8.0322,503,1.6226
8.0365,505,1.6290
8.0409,433,1.3968
8.0452,404,1.3032
8.0495,468,1.5097
8.0561,512,1.6516
8.0606,442,1.4258
8.0650,411,1.3258
8.0693,475,1.5323
8.0736,533,1.7194
8.0779,502,1.6194
8.0822,432,1.3935
8.0865,439,1.4161
8.0908,515,1.6613
8.0950,544,1.7548
8.0993,490,1.5806
8.1039,437,1.4097
8.1082,480,1.5484
8.1126,554,1.7871
8.1169,546,1.7613
8.1212,476,1.5355
8.1255,459,1.4806
8.1298,530,1.7097
8.1341,579,1.8677
8.1384,543,1.7516
8.1427,477,1.5387
8.1470,496,1.6000
8.1513,577,1.8613
8.1556,600,1.9355
8.1599,542,1.7484
8.1641,500,1.6129
8.1684,551,1.7774
8.1727,625,2.0161
8.1770,620,2.0000
8.1812,554,1.7871
8.1854,539,1.7387
8.1896,611,1.9710
8.1938,666,2.1484
8.1980,639,2.0613
8.2023,571,1.8419
8.2066,584,1.8839
8.2110,664,2.1419
8.2153,694,2.2387
8.2195,636,2.0516
8.2239,583,1.8806
8.2282,627,2.0226
8.2326,692,2.2323
8.2368,680,2.1935
8.2411,597,1.9258
8.2453,560,1.8065
8.2495,608,1.9613
8.2538,644,2.0774
8.2580,594,1.9161
8.2622,504,1.6258
8.2664,488,1.5742
8.2707,546,1.7613
8.2750,560,1.8065
8.2793,493,1.5903
8.2836,422,1.3613
8.2878,444,1.4323
8.2920,508,1.6387
8.2963,505,1.6290
8.3006,430,1.3871
8.3049,392,1.2645
8.3091,448,1.4452
8.3134,504,1.6258
8.3177,476,1.5355
8.3221,398,1.2839
8.3264,397,1.2806
8.3307,473,1.5258
8.3349,504,1.6258
8.3392,450,1.4516
8.3435,391,1.2613
8.3477,422,1.3613
8.3519,496,1.6000
8.3562,502,1.6194
8.3604,434,1.4000
8.3646,397,1.2806
8.3689,452,1.4581
8.3732,515,1.6613
8.3775,494,1.5935
8.3818,421,1.3581
8.3861,414,1.3355
8.3904,488,1.5742
8.3948,525,1.6935
8.3991,471,1.5194
8.4034,411,1.3258
8.4078,444,1.4323
8.4120,519,1.6742
8.4163,522,1.6839
8.4206,452,1.4581
8.4249,416,1.3419
8.4291,474,1.5290
8.4334,533,1.7194
8.4377,507,1.6355
8.4421,433,1.3968
8.4464,432,1.3935
8.4507,507,1.6355
8.4550,537,1.7323
8.4592,482,1.5548
8.4635,423,1.3645
8.4678,456,1.4710
8.4720,528,1.7032
8.4762,531,1.7129
8.4804,464,1.4968
8.4846,424,1.3677
8.4888,475,1.5323
8.4930,538,1.7355
8.4973,520,1.6774
8.5015,447,1.4419
8.5057,429,1.3839
8.5099,498,1.6065
8.5141,542,1.7484
8.5183,505,1.6290
8.5226,434,1.4000
8.5268,442,1.4258
8.5310,518,1.6710
8.5352,542,1.7484
8.5394,485,1.5645
8.5436,429,1.3839
8.5478,462,1.4903
8.5521,534,1.7226
8.5564,535,1.7258
8.5607,463,1.4935
8.5650,430,1.3871
8.5693,491,1.5839
8.5736,547,1.7645
8.5780,517,1.6677
8.5823,445,1.4355
8.5866,449,1.4484
8.5909,524,1.6903
8.5953,549,1.7710
8.5996,488,1.5742
8.6039,435,1.4032
8.6082,476,1.5355
8.6125,546,1.7613
8.6168,539,1.7387
8.6211,466,1.5032
8.6254,439,1.4161
8.6297,503,1.6226
8.6339,551,1.7774
8.6382,515,1.6613
8.6425,444,1.4323
8.6468,451,1.4548
8.6511,526,1.6968
8.6562,542,1.7484
8.6606,472,1.5226
8.6649,438,1.4129
8.6691,496,1.6000
8.6734,554,1.7871
8.6777,529,1.7065
8.6820,455,1.4677
8.6863,450,1.4516
8.6906,524,1.6903
8.6948,556,1.7935
8.6991,505,1.6290
8.7034,443,1.4290
8.7077,469,1.5129
8.7119,545,1.7581
8.7162,553,1.7839
8.7205,484,1.5613
8.7248,448,1.4452
8.7290,507,1.6355
8.7332,574,1.8516
8.7375,560,1.8065
8.7417,491,1.5839
8.7459,483,1.5581
8.7501,558,1.8000
8.7543,611,1.9710
8.7586,575,1.8548
8.7628,500,1.6129
8.7670,504,1.6258
8.7712,572,1.8452
8.7754,588,1.8968
8.7796,528,1.7032
8.7838,468,1.5097
8.7880,495,1.5968
8.7922,560,1.8065
8.7965,557,1.7968
8.8007,485,1.5645
8.8049,445,1.4355
8.8091,496,1.6000
8.8133,554,1.7871
8.8176,534,1.7226
8.8218,461,1.4871
8.8260,449,1.4484
8.8302,517,1.6677
8.8344,557,1.7968
8.8387,515,1.6613
8.8429,447,1.4419
8.8471,460,1.4839
8.8513,533,1.7194
8.8556,550,1.7742
8.8599,477,1.5387
8.8642,406,1.3097
8.8684,435,1.4032
8.8726,511,1.6484
8.8769,546,1.7613
8.8812,574,1.8516
8.8855,701,2.2613
8.8899,924,2.9806
8.8942,1003,3.2355
8.8984,1003,3.2355
8.9027,1002,3.2323
8.9070,995,3.2097
8.9113,861,2.7774
8.9156,657,2.1194
8.9199,466,1.5032
8.9242,371,1.1968
8.9285,415,1.3387
8.9328,497,1.6032
8.9370,499,1.6097
8.9412,432,1.3935
8.9454,409,1.3194
8.9497,470,1.5161
8.9565,509,1.6419
8.9609,437,1.4097
8.9652,408,1.3161
8.9694,469,1.5129
8.9736,523,1.6871
8.9778,502,1.6194
8.9821,433,1.3968
8.9863,429,1.3839
8.9905,504,1.6258
8.9948,543,1.7516
8.9990,498,1.6065
9.0032,434,1.4000
9.0075,458,1.4774
9.0117,535,1.7258
9.0159,553,1.7839
9.0201,491,1.5839
9.0244,446,1.4387
9.0286,493,1.5903
9.0328,563,1.8161
9.0370,558,1.8000
9.0412,489,1.5774
9.0455,467,1.5065
9.0497,534,1.7226
9.0539,589,1.9000
9.0582,560,1.8065
9.0624,494,1.5935
9.0666,500,1.6129
9.0708,582,1.8774
9.0750,620,2.0000
9.0792,574,1.8516
9.0834,518,1.6710
9.0877,548,1.7677
9.0920,629,2.0290
9.0963,645,2.0806
9.1006,582,1.8774
9.1049,548,1.7677
9.1092,611,1.9710
9.1135,675,2.1774
9.1179,652,2.1032
9.1224,580,1.8710
9.1268,587,1.8935
9.1311,664,2.1419
9.1354,691,2.2290
9.1397,629,2.0290
9.1440,567,1.8290
9.1483,595,1.9194
9.1525,650,2.0968
9.1568,633,2.0419
9.1611,542,1.7484
9.1654,496,1.6000
9.1697,543,1.7516
9.1740,577,1.8613
9.1783,530,1.7097
9.1825,441,1.4226
9.1869,434,1.4000
9.1911,497,1.6032
9.1954,510,1.6452
9.1997,445,1.4355
9.2040,386,1.2452
9.2084,422,1.3613
9.2127,488,1.5742
9.2169,479,1.5452
9.2212,406,1.3097
9.2255,380,1.2258
9.2298,442,1.4258
9.2340,490,1.5806
9.2383,456,1.4710
9.2425,386,1.2452
9.2468,392,1.2645
9.2511,469,1.5129
9.2554,495,1.5968
9.2597,438,1.4129
9.2639,382,1.2323
9.2682,420,1.3548
9.2724,492,1.5871
9.2766,495,1.5968
9.2808,429,1.3839
9.2850,393,1.2677
9.2892,450,1.4516
9.2935,511,1.6484
9.2977,491,1.5839
9.3019,418,1.3484
9.3061,407,1.3129
9.3103,479,1.5452
9.3145,521,1.6806
9.3187,478,1.5419
9.3230,411,1.3258
9.3272,426,1.3742
9.3314,504,1.6258
9.3357,523,1.6871
9.3399,463,1.4935
9.3441,409,1.3194
9.3483,449,1.4484
9.3525,522,1.6839
9.3568,519,1.6742
9.3610,447,1.4419
9.3652,416,1.3419
9.3695,475,1.5323
9.3737,531,1.7129
9.3780,501,1.6161
9.3823,426,1.3742
9.3870,430,1.3871
9.3913,505,1.6290
9.3955,529,1.7065
9.3998,467,1.5065
9.4041,414,1.3355
9.4084,456,1.4710
9.4127,527,1.7000
9.4170,519,1.6742
9.4214,443,1.4290
9.4256,419,1.3516
9.4298,484,1.5613
9.4340,538,1.7355
9.4383,503,1.6226
9.4425,429,1.3839
9.4468,434,1.4000
9.4512,511,1.6484
9.4555,535,1.7258
9.4599,474,1.5290
9.4642,421,1.3581
9.4684,462,1.4903
9.4727,535,1.7258
9.4770,528,1.7032
9.4812,456,1.4710
9.4854,428,1.3806
9.4896,490,1.5806
9.4939,545,1.7581
9.4981,517,1.6677
9.5023,443,1.4290
9.5065,441,1.4226
9.5108,517,1.6677
9.5151,553,1.7839
9.5194,497,1.6032
9.5237,436,1.4065
9.5281,469,1.5129
9.5323,545,1.7581
9.5366,545,1.7581
9.5408,475,1.5323
9.5451,438,1.4129
9.5494,498,1.6065
9.5562,552,1.7806
9.5605,483,1.5581
9.5648,443,1.4290
9.5691,500,1.6129
9.5733,565,1.8226
9.5775,555,1.7903
9.5817,485,1.5645
9.5859,469,1.5129
9.5901,543,1.7516
9.5943,601,1.9387
9.5985,577,1.8613
9.6027,510,1.6452
9.6069,512,1.6516
9.6112,580,1.8710
9.6155,593,1.9129
9.6199,526,1.6968
9.6243,468,1.5097
9.6288,512,1.6516
9.6332,568,1.8323
9.6376,544,1.7548
9.6420,464,1.4968
9.6464,453,1.4613
9.6508,526,1.6968
9.6553,556,1.7935
9.6597,494,1.5935
9.6641,438,1.4129
9.6685,479,1.5452
9.6729,550,1.7742
9.6773,538,1.7355
9.6817,461,1.4871
9.6861,445,1.4355
9.6905,520,1.6774
9.6948,556,1.7935
9.6991,502,1.6194
9.7035,427,1.3774
9.7079,435,1.4032
9.7122,501,1.6161
9.7166,519,1.6742
9.7210,503,1.6226
9.7254,580,1.8710
9.7297,788,2.5419
9.7341,974,3.1419
9.7385,1002,3.2323
9.7429,1002,3.2323
9.7473,1000,3.2258
9.7517,961,3.1000
9.7560,775,2.5000
9.7603,544,1.7548
9.7647,403,1.3000
9.7691,421,1.3581
9.7734,486,1.5677
9.7778,477,1.5387
9.7821,414,1.3355
9.7865,414,1.3355
9.7909,491,1.5839
9.7953,524,1.6903
9.7997,466,1.5032
9.8041,407,1.3129
9.8084,447,1.4419
9.8127,521,1.6806
9.8171,516,1.6645
9.8218,437,1.4097
9.8262,426,1.3742
9.8306,506,1.6323
9.8350,544,1.7548
9.8394,493,1.5903
9.8437,433,1.3968
9.8481,467,1.5065
9.8525,543,1.7516
9.8571,540,1.7419
9.8615,466,1.5032
9.8659,449,1.4484
9.8703,524,1.6903
9.8747,574,1.8516
9.8791,530,1.7097
9.8835,469,1.5129
9.8879,498,1.6065
9.8923,579,1.8677
9.8966,586,1.8903
9.9010,519,1.6742
9.9053,490,1.5806
9.9097,558,1.8000
9.9141,618,1.9935
9.9184,586,1.8903
9.9228,518,1.6710
9.9272,536,1.7290
9.9316,622,2.0065
9.9360,646,2.0839
9.9405,586,1.8903
9.9449,548,1.7677
9.9493,611,1.9710
9.9536,679,2.1903
9.9580,658,2.1226
9.9623,587,1.8935
9.9667,588,1.8968
9.9710,666,2.1484
9.9754,697,2.2484
9.9797,637,2.0548
9.9841,571,1.8419
9.9884,602,1.9419
9.9927,664,2.1419
9.9971,645,2.0806
10.0014,553,1.7839
10.0069,516,1.6645
10.0113,578,1.8645
10.0196,515,1.6613
10.0240,441,1.4226
10.0284,468,1.5097
10.0327,531,1.7129
10.0371,517,1.6677
10.0414,433,1.3968
10.0458,403,1.3000
10.0501,465,1.5000
10.0544,508,1.6387
10.0588,464,1.4968
10.0632,392,1.2645
10.0675,411,1.3258
10.0718,490,1.5806
10.0762,503,1.6226
10.0805,432,1.3935
10.0849,387,1.2484
10.0892,442,1.4258
10.0936,508,1.6387
10.0980,484,1.5613
10.1023,409,1.3194
10.1066,405,1.3065
10.1109,482,1.5548
10.1152,518,1.6710
10.1194,463,1.4935
10.1237,403,1.3000
10.1280,432,1.3935
10.1323,510,1.6452
10.1366,518,1.6710
10.1409,447,1.4419
10.1452,410,1.3226
10.1494,467,1.5065
10.1537,530,1.7097
10.1580,504,1.6258
10.1623,431,1.3903
10.1665,424,1.3677
10.1707,496,1.6000
10.1749,534,1.7226
10.1791,488,1.5742
10.1833,423,1.3645
10.1875,441,1.4226
10.1917,516,1.6645
10.1959,532,1.7161
10.2001,470,1.5161
10.2043,416,1.3419
10.2085,455,1.4677
10.2127,526,1.6968
10.2170,520,1.6774
10.2212,448,1.4452
10.2255,420,1.3548
10.2298,482,1.5548
10.2341,535,1.7258
10.2385,501,1.6161
10.2428,426,1.3742
10.2472,434,1.4000
10.2515,512,1.6516
10.2557,533,1.7194
10.2600,473,1.5258
10.2643,420,1.3548
10.2686,460,1.4839
10.2729,530,1.7097
10.2772,525,1.6935
10.2814,452,1.4581
10.2856,423,1.3645
10.2898,486,1.5677
10.2940,540,1.7419
10.2983,511,1.6484
10.3026,437,1.4097
10.3068,435,1.4032
10.3110,508,1.6387
10.3152,538,1.7355
10.3194,489,1.5774
10.3237,429,1.3839
10.3279,455,1.4677
10.3322,529,1.7065
10.3365,538,1.7355
10.3408,473,1.5258
10.3451,439,1.4161
10.3494,500,1.6129
10.3537,564,1.8194
10.3580,546,1.7613
10.3624,477,1.5387
10.3667,482,1.5548
10.3710,568,1.8323
10.3753,615,1.9839
10.3796,571,1.8419
10.3839,503,1.6226
10.3881,524,1.6903
10.3924,586,1.8903
10.3967,581,1.8742
10.4009,506,1.6323
10.4052,465,1.5000
10.4095,514,1.6581
10.4138,563,1.8161
10.4180,532,1.7161
10.4223,453,1.4613
10.4266,440,1.4194
10.4308,507,1.6355
10.4350,545,1.7581
10.4392,499,1.6097
10.4434,436,1.4065
10.4476,454,1.4645
10.4519,528,1.7032
10.4567,539,1.7387
10.4610,468,1.5097
10.4653,432,1.3935
10.4695,487,1.5710
10.4737,545,1.7581
10.4780,518,1.6710
10.4822,436,1.4065
10.4864,405,1.3065
10.4906,465,1.5000
10.4948,523,1.6871
10.4990,539,1.7387
10.5033,584,1.8839
10.5075,744,2.4000
10.5117,961,3.1000
10.5159,1001,3.2290
10.5201,1002,3.2323
10.5244,1000,3.2258
10.5287,991,3.1968
10.5329,843,2.7194
10.5372,625,2.0161
10.5414,431,1.3903
10.5456,364,1.1742
10.5499,427,1.3774
10.5541,494,1.5935
10.5584,479,1.5452
10.5627,414,1.3355
10.5670,419,1.3516
10.5713,491,1.5839
10.5757,515,1.6613
10.5800,456,1.4710
10.5843,402,1.2968
10.5885,438,1.4129
10.5928,507,1.6355
10.5971,505,1.6290
10.6014,436,1.4065
10.6056,408,1.3161
10.6098,466,1.5032
10.6140,521,1.6806
10.6182,496,1.6000
10.6225,425,1.3710
10.6267,421,1.3581
10.6310,494,1.5935
10.6353,530,1.7097
10.6396,483,1.5581
10.6439,428,1.3806
10.6483,459,1.4806
10.6525,532,1.7161
10.6568,540,1.7419
10.6611,476,1.5355
10.6654,448,1.4452
10.6698,512,1.6516
10.6741,574,1.8516
10.6784,551,1.7774
10.6826,487,1.5710
10.6869,494,1.5935
10.6913,573,1.8484
10.6956,607,1.9581
10.6999,560,1.8065
10.7041,512,1.6516
10.7084,552,1.7806
10.7126,631,2.0355
10.7168,642,2.0710
10.7210,585,1.8871
10.7253,557,1.7968
10.7295,616,1.9871
10.7337,685,2.2097
10.7379,672,2.1677
10.7421,605,1.9516
10.7463,594,1.9161
10.7506,664,2.1419
10.7568,698,2.2516
10.7611,623,2.0097
10.7654,581,1.8742
10.7696,627,2.0226
10.7739,668,2.1548
10.7783,624,2.0129
10.7825,536,1.7290
10.7869,515,1.6613
10.7912,568,1.8323
10.7955,580,1.8710
10.7998,515,1.6613
10.8041,443,1.4290
10.8085,465,1.5000
10.8128,526,1.6968
10.8171,515,1.6613
10.8215,438,1.4129
10.8259,407,1.3129
10.8302,467,1.5065
10.8346,514,1.6581
10.8389,475,1.5323
10.8432,408,1.3161
10.8476,422,1.3613
10.8519,495,1.5968
10.8562,511,1.6484
10.8605,447,1.4419
10.8648,402,1.2968
10.8691,448,1.4452
10.8734,515,1.6613
10.8777,501,1.6161
10.8820,429,1.3839
10.8863,414,1.3355
10.8906,485,1.5645
10.8950,526,1.6968
10.8993,481,1.5516
10.9035,419,1.3516
10.9078,439,1.4161
10.9121,512,1.6516
10.9164,525,1.6935
10.9207,458,1.4774
10.9250,417,1.3452
10.9292,466,1.5032
10.9335,530,1.7097
10.9378,514,1.6581
10.9421,442,1.4258
10.9463,427,1.3774
10.9506,496,1.6000
10.9549,536,1.7290
10.9592,492,1.5871
10.9636,426,1.3742
10.9679,446,1.4387
10.9722,521,1.6806
10.9765,531,1.7129
10.9807,467,1.5065
10.9850,423,1.3645
10.9893,470,1.5161
10.9936,535,1.7258
10.9978,518,1.6710
11.0021,444,1.4323
11.0064,429,1.3839
11.0107,498,1.6065
11.0150,537,1.7323
11.0193,490,1.5806
11.0237,425,1.3710
11.0280,445,1.4355
11.0323,521,1.6806
11.0366,531,1.7129
11.0409,465,1.5000
11.0452,426,1.3742
11.0495,479,1.5452
11.0538,538,1.7355
11.0581,516,1.6645
11.0624,442,1.4258
11.0667,435,1.4032
11.0710,508,1.6387
11.0753,543,1.7516
11.0797,493,1.5903
11.0840,434,1.4000
11.0883,468,1.5097
11.0925,547,1.7645
11.0968,557,1.7968
11.1010,495,1.5968
11.1053,462,1.4903
11.1096,522,1.6839
11.1139,591,1.9065
11.1182,583,1.8806
11.1225,522,1.6839
11.1268,513,1.6548
11.1310,574,1.8516
11.1353,598,1.9290
11.1395,539,1.7387
11.1438,469,1.5129
11.1480,486,1.5677
11.1523,552,1.7806
11.1566,553,1.7839
11.1609,477,1.5387
11.1652,432,1.3935
11.1695,476,1.5355
11.1737,532,1.7161
11.1780,515,1.6613
11.1822,441,1.4226
11.1864,427,1.3774
11.1909,499,1.6097
11.1952,535,1.7258
11.1994,492,1.5871
11.2036,427,1.3774
11.2078,445,1.4355
11.2120,519,1.6742
11.2162,533,1.7194
11.2205,469,1.5129
11.2248,417,1.3452
11.2290,443,1.4290
11.2333,492,1.5871
11.2376,482,1.5548
11.2419,440,1.4194
11.2462,500,1.6129
11.2505,699,2.2548
11.2548,903,2.9129
11.2591,996,3.2129
11.2634,1003,3.2355
11.2677,1004,3.2387
11.2720,1003,3.2355
11.2763,928,2.9935
11.2805,653,2.1065
11.2848,441,1.4226
11.2890,416,1.3419
11.2933,471,1.5194
11.2977,468,1.5097
11.3020,407,1.3129
11.3065,402,1.2968
11.3109,476,1.5355
11.3154,513,1.6548
11.3198,458,1.4774
11.3242,397,1.2806
11.3286,434,1.4000
11.3331,509,1.6419
11.3376,501,1.6161
11.3421,426,1.3742
11.3465,414,1.3355
11.3508,487,1.5710
11.3576,510,1.6452
11.3621,439,1.4161
11.3665,429,1.3839
11.3709,503,1.6226
11.3753,542,1.7484
11.3796,494,1.5935
11.3840,434,1.4000
11.3884,468,1.5097
11.3928,543,1.7516
11.3972,547,1.7645
11.4015,478,1.5419
11.4059,455,1.4677
11.4103,524,1.6903
11.4146,578,1.8645
11.4191,544,1.7548
11.4234,482,1.5548
11.4278,502,1.6194
11.4322,584,1.8839
11.4366,604,1.9484
11.4409,545,1.7581
11.4453,511,1.6484
11.4497,572,1.8452
11.4541,638,2.0581
11.4584,619,1.9968
11.4628,555,1.7903
11.4672,562,1.8129
11.4716,644,2.0774
11.4760,673,2.1710
11.4803,618,1.9935
11.4847,572,1.8452
11.4890,616,1.9871
11.4934,686,2.2129
11.4978,675,2.1774
11.5021,598,1.9290
11.5065,577,1.8613
11.5109,636,2.0516
11.5153,663,2.1387
11.5197,596,1.9226
11.5241,516,1.6645
11.5285,528,1.7032
11.5329,582,1.8774
11.5373,563,1.8161
11.5417,472,1.5226
11.5461,435,1.4032
11.5504,486,1.5677
11.5548,523,1.6871
11.5592,474,1.5290
11.5636,401,1.2935
11.5680,415,1.3387
11.5724,486,1.5677
11.5768,492,1.5871
11.5811,422,1.3613
11.5855,384,1.2387
11.5899,441,1.4226
11.5943,496,1.6000
11.5987,466,1.5032
11.6031,393,1.2677
11.6075,400,1.2903
11.6118,477,1.5387
11.6162,497,1.6032
11.6207,435,1.4032
11.6251,391,1.2613
11.6295,441,1.4226
11.6338,503,1.6226
11.6382,483,1.5581
11.6426,413,1.3323
11.6470,412,1.3290
11.6514,486,1.5677
11.6579,494,1.5935
11.6624,421,1.3581
11.6668,411,1.3258
11.6711,483,1.5581
11.6755,518,1.6710
11.6799,465,1.5000
11.6843,407,1.3129
11.6886,443,1.4290
11.6930,515,1.6613
11.6974,508,1.6387
11.7018,438,1.4129
11.7062,417,1.3452
11.7105,482,1.5548
11.7149,527,1.7000
11.7192,487,1.5710
11.7236,421,1.3581
11.7280,440,1.4194
11.7323,513,1.6548
11.7366,526,1.6968
11.7410,459,1.4806
11.7453,419,1.3516
11.7497,473,1.5258
11.7542,532,1.7161
11.7586,505,1.6290
11.7629,432,1.3935
11.7673,436,1.4065
11.7716,511,1.6484
11.7760,537,1.7323
11.7803,477,1.5387
11.7847,424,1.3677
11.7890,464,1.4968
11.7933,532,1.7161
11.7977,524,1.6903
11.8020,451,1.4548
11.8064,436,1.4065
11.8107,511,1.6484
11.8151,557,1.7968
11.8194,521,1.6806
11.8238,460,1.4839
11.8281,486,1.5677
11.8324,568,1.8323
11.8368,589,1.9000
11.8411,536,1.7290
11.8455,500,1.6129
11.8498,545,1.7581
11.8541,596,1.9226
11.8584,563,1.8161
11.8626,478,1.5419
11.8669,467,1.5065
11.8711,530,1.7097
11.8754,556,1.7935
11.8796,502,1.6194
11.8838,432,1.3935
11.8881,444,1.4323
11.8923,512,1.6516
11.8965,524,1.6903
11.9007,462,1.4903
11.9049,417,1.3452
11.9092,458,1.4774
11.9134,523,1.6871
11.9176,516,1.6645
11.9219,443,1.4290
11.9261,417,1.3452
11.9304,481,1.5516
11.9347,527,1.7000
11.9389,490,1.5806
11.9432,418,1.3484
11.9474,409,1.3194
11.9516,461,1.4871
11.9558,483,1.5581
11.9600,449,1.4484
11.9643,451,1.4548
11.9685,594,1.9161
11.9727,816,2.6323
11.9769,970,3.1290
11.9812,1000,3.2258
11.9854,1003,3.2355
11.9896,1001,3.2290
11.9939,992,3.2000
11.9981,786,2.5355
12.0023,520,1.6774
12.0065,393,1.2677
12.0107,425,1.3710
12.0149,471,1.5194
12.0191,446,1.4387
12.0234,392,1.2645
12.0276,408,1.3161
12.0318,483,1.5581
12.0361,506,1.6323
12.0403,448,1.4452
12.0446,396,1.2774
12.0488,433,1.3968
12.0531,503,1.6226
12.0573,502,1.6194
12.0615,436,1.4065
12.0658,408,1.3161
12.0700,468,1.5097
12.0742,527,1.7000
12.0785,505,1.6290
12.0827,437,1.4097
12.0870,434,1.4000
12.0912,506,1.6323
12.0954,544,1.7548
12.0996,501,1.6161
12.1038,441,1.4226
12.1081,463,1.4935
12.1123,540,1.7419
12.1165,559,1.8032
12.1207,499,1.6097
12.1250,456,1.4710
12.1292,502,1.6194
12.1334,572,1.8452
12.1376,572,1.8452
12.1419,506,1.6323
12.1461,487,1.5710
12.1503,555,1.7903
12.1545,611,1.9710
12.1588,587,1.8935
12.1630,524,1.6903
12.1673,532,1.7161
12.1715,610,1.9677
12.1757,646,2.0839
12.1799,604,1.9484
12.1841,551,1.7774
12.1884,583,1.8806
12.1926,660,2.1290
12.1968,675,2.1774
12.2010,612,1.9742
12.2052,575,1.8548
12.2095,625,2.0161
12.2137,690,2.2258
12.2179,678,2.1871
12.2221,602,1.9419
12.2263,573,1.8484
12.2305,628,2.0258
12.2347,663,2.1387
12.2390,615,1.9839
12.2432,525,1.6935
12.2475,512,1.6516
12.2517,566,1.8258
12.2575,558,1.8000
12.2618,472,1.5226
12.2661,431,1.3903
12.2704,482,1.5548
12.2746,520,1.6774
12.2788,480,1.5484
12.2830,404,1.3032
12.2872,399,1.2871
12.2915,467,1.5065
12.2957,495,1.5968
12.2999,444,1.4323
12.3042,382,1.2323
12.3085,408,1.3161
12.3129,477,1.5387
12.3172,479,1.5452
12.3216,408,1.3161
12.3259,379,1.2226
12.3302,441,1.4226
12.3345,495,1.5968
12.3388,464,1.4968
12.3431,394,1.2710
12.3474,395,1.2742
12.3517,468,1.5097
12.3561,493,1.5903
12.3604,436,1.4065
12.3647,384,1.2387
12.3690,422,1.3613
12.3733,491,1.5839
12.3775,489,1.5774
12.3818,419,1.3516
12.3861,395,1.2742
12.3904,454,1.4645
12.3946,505,1.6290
12.3988,479,1.5452
12.4031,411,1.3258
12.4073,409,1.3194
12.4115,478,1.5419
12.4157,511,1.6484
12.4199,463,1.4935
12.4241,406,1.3097
12.4283,429,1.3839
12.4326,502,1.6194
12.4368,514,1.6581
12.4410,451,1.4548
12.4452,408,1.3161
12.4494,455,1.4677
12.4536,520,1.6774
12.4578,509,1.6419
12.4620,439,1.4161
12.4662,416,1.3419
12.4704,478,1.5419
12.4747,528,1.7032
12.4789,497,1.6032
12.4831,430,1.3871
12.4874,438,1.4129
12.4917,516,1.6645
12.4961,547,1.7645
12.5004,499,1.6097
12.5048,451,1.4548
12.5091,494,1.5935
12.5133,568,1.8323
12.5176,580,1.8710
12.5220,529,1.7065
12.5263,507,1.6355
12.5306,558,1.8000
12.5348,598,1.9290
12.5391,550,1.7742
12.5434,468,1.5097
12.5477,473,1.5258
12.5519,544,1.7548
12.5577,536,1.7290
12.5620,456,1.4710
12.5663,428,1.3806
12.5705,486,1.5677
12.5747,530,1.7097
12.5790,499,1.6097
12.5832,430,1.3871
12.5874,433,1.3968
12.5916,503,1.6226
12.5959,529,1.7065
12.6001,479,1.5452
12.6043,424,1.3677
12.6085,450,1.4516
12.6127,519,1.6742
12.6170,525,1.6935
12.6214,455,1.4677
12.6256,411,1.3258
12.6299,446,1.4387
12.6342,486,1.5677
12.6385,467,1.5065
12.6428,433,1.3968
12.6471,521,1.6806
12.6514,735,2.3710
12.6558,928,2.9935
12.6600,999,3.2226
12.6644,1003,3.2355
12.6687,1000,3.2258
12.6731,1000,3.2258
12.6775,870,2.8065
12.6819,584,1.8839
12.6862,421,1.3581
12.6904,433,1.3968
12.6947,478,1.5419
12.6989,461,1.4871
12.7032,405,1.3065
12.7075,416,1.3419
12.7118,490,1.5806
12.7161,515,1.6613
12.7203,459,1.4806
12.7246,406,1.3097
12.7289,442,1.4258
12.7331,512,1.6516
12.7373,515,1.6613
12.7415,450,1.4516
12.7458,420,1.3548
12.7500,476,1.5355
12.7542,537,1.7323
12.7584,519,1.6742
12.7627,450,1.4516
12.7669,441,1.4226
12.7711,511,1.6484
12.7753,550,1.7742
12.7796,511,1.6484
12.7838,450,1.4516
12.7881,473,1.5258
12.7924,550,1.7742
12.7967,568,1.8323
12.8010,509,1.6419
12.8052,469,1.5129
12.8094,516,1.6645
12.8137,585,1.8871
12.8180,576,1.8581
12.8223,511,1.6484
12.8267,503,1.6226
12.8310,577,1.8613
12.8353,622,2.0065
12.8396,586,1.8903
12.8439,529,1.7065
12.8482,555,1.7903
12.8525,636,2.0516
12.8568,654,2.1097
12.8610,599,1.9323
12.8653,562,1.8129
12.8695,613,1.9774
12.8737,684,2.2065
12.8779,681,2.1968
12.8821,612,1.9742
12.8864,593,1.9129
12.8906,659,2.1258
12.8948,711,2.2935
12.8991,672,2.1677
12.9034,597,1.9258
12.9077,595,1.9194
12.9120,658,2.1226
12.9163,666,2.1484
12.9205,591,1.9065
12.9248,520,1.6774
12.9290,539,1.7387
12.9334,591,1.9065
12.9377,570,1.8387
12.9420,483,1.5581
12.9463,443,1.4290
12.9506,497,1.6032
12.9549,536,1.7290
12.9595,484,1.5613
12.9638,410,1.3226
12.9681,423,1.3645
12.9724,492,1.5871
12.9767,503,1.6226
12.9810,440,1.4194
12.9853,393,1.2677
12.9895,438,1.4129
12.9938,504,1.6258
12.9981,490,1.5806
13.0024,417,1.3452
13.0066,400,1.2903
13.0108,467,1.5065
13.0150,511,1.6484
13.0192,476,1.5355
13.0234,411,1.3258
13.0277,420,1.3548
13.0319,493,1.5903
13.0361,518,1.6710
13.0403,465,1.5000
13.0445,408,1.3161
13.0488,440,1.4194
13.0530,512,1.6516
13.0572,517,1.6677
13.0615,451,1.4548
13.0657,417,1.3452
13.0700,469,1.5129
13.0742,529,1.7065
13.0785,511,1.6484
13.0827,439,1.4161
13.0869,427,1.3774
13.0911,493,1.5903
13.0954,533,1.7194
13.0997,492,1.5871
13.1040,426,1.3742
13.1083,446,1.4387
13.1126,519,1.6742
13.1170,531,1.7129
13.1214,461,1.4871
13.1258,424,1.3677
13.1301,481,1.5516
13.1344,537,1.7323
13.1387,513,1.6548
13.1430,446,1.4387
13.1473,449,1.4484
13.1516,529,1.7065
13.1579,551,1.7774
13.1623,483,1.5581
13.1666,472,1.5226
13.1709,553,1.7839
13.1752,612,1.9742
13.1794,575,1.8548
13.1837,496,1.6000
13.1880,500,1.6129
13.1924,561,1.8097
13.1967,568,1.8323
13.2010,502,1.6194
13.2053,448,1.4452
13.2095,483,1.5581
13.2137,539,1.7387
13.2180,522,1.6839
13.2222,442,1.4258
13.2265,414,1.3355
13.2307,478,1.5419
13.2350,526,1.6968
13.2392,494,1.5935
13.2434,425,1.3710
13.2476,429,1.3839
13.2518,502,1.6194
13.2561,529,1.7065
13.2603,473,1.5258
13.2646,417,1.3452
13.2688,448,1.4452
13.2731,518,1.6710
13.2773,518,1.6710
13.2815,442,1.4258
13.2857,386,1.2452
13.2899,426,1.3742
13.2942,493,1.5903
13.2984,517,1.6677
13.3027,539,1.7387
13.3069,664,2.1419
13.3111,881,2.8419
13.3153,1001,3.2290
13.3195,1001,3.2290
13.3237,1001,3.2290
13.3279,988,3.1871
13.3322,848,2.7355
13.3365,652,2.1032
13.3408,457,1.4742
13.3451,359,1.1581
13.3495,397,1.2806
13.3538,476,1.5355
13.3582,477,1.5387
13.3625,412,1.3290
13.3668,397,1.2806
13.3710,463,1.4935
13.3753,504,1.6258
13.3797,460,1.4839
13.3841,398,1.2839
13.3884,420,1.3548
13.3926,496,1.6000
13.3969,510,1.6452
13.4012,448,1.4452
13.4055,407,1.3129
13.4098,460,1.4839
13.4141,523,1.6871
13.4183,512,1.6516
13.4227,443,1.4290
13.4270,433,1.3968
13.4313,507,1.6355
13.4356,548,1.7677
13.4399,505,1.6290
13.4441,444,1.4323
13.4483,468,1.5097
13.4525,548,1.7677
13.4584,547,1.7645
13.4627,479,1.5452
13.4670,472,1.5226
13.4712,545,1.7581
13.4754,589,1.9000
13.4797,552,1.7806
13.4839,494,1.5935
13.4881,514,1.6581
13.4922,594,1.9161
13.4965,624,2.0129
13.5007,568,1.8323
13.5049,522,1.6839
13.5091,563,1.8161
13.5133,638,2.0581
13.5175,647,2.0871
13.5219,581,1.8742
13.5261,557,1.7968
13.5303,621,2.0032
13.5345,680,2.1935
13.5388,658,2.1226
13.5430,586,1.8903
13.5472,580,1.8710
13.5514,650,2.0968
13.5557,683,2.2032
13.5599,628,2.0258
13.5643,553,1.7839
13.5686,561,1.8097
13.5730,620,2.0000
13.5773,605,1.9516
13.5817,519,1.6742
13.5861,466,1.5032
13.5903,510,1.6452
13.5946,551,1.7774
13.5989,513,1.6548
13.6032,429,1.3839
13.6075,419,1.3516
13.6118,485,1.5645
13.6160,509,1.6419
13.6203,453,1.4613
13.6245,391,1.2613
13.6287,416,1.3419
13.6330,487,1.5710
13.6372,491,1.5839
13.6414,423,1.3645
13.6456,382,1.2323
13.6499,435,1.4032
13.6541,498,1.6065
13.6584,482,1.5548
13.6626,410,1.3226
13.6669,398,1.2839
13.6711,469,1.5129
13.6754,512,1.6516
13.6797,469,1.5129
13.6840,404,1.3032
13.6883,424,1.3677
13.6927,499,1.6097
13.6970,512,1.6516
13.7013,448,1.4452
13.7057,408,1.3161
13.7100,461,1.4871
13.7143,523,1.6871
13.7186,503,1.6226
13.7230,429,1.3839
13.7273,426,1.3742
13.7317,498,1.6065
13.7359,528,1.7032
13.7402,477,1.5387
13.7445,416,1.3419
13.7488,445,1.4355
13.7532,520,1.6774
13.7577,521,1.6806
13.7621,447,1.4419
13.7665,421,1.3581
13.7710,491,1.5839
13.7754,537,1.7323
13.7798,492,1.5871
13.7843,424,1.3677
13.7887,451,1.4548
13.7933,529,1.7065
13.7977,533,1.7194
13.8021,468,1.5097
13.8064,447,1.4419
13.8108,517,1.6677
13.8152,570,1.8387
13.8196,544,1.7548
13.8240,492,1.5871
13.8283,518,1.6710
13.8328,590,1.9032
13.8371,592,1.9097
13.8415,513,1.6548
13.8459,460,1.4839
13.8502,509,1.6419
13.8546,563,1.8161
13.8590,526,1.6968
13.8633,443,1.4290
13.8677,437,1.4097
13.8720,507,1.6355
13.8764,529,1.7065
13.8807,466,1.5032
13.8851,410,1.3226
13.8894,453,1.4613
13.8938,524,1.6903
13.8981,513,1.6548
13.9025,439,1.4161
13.9069,418,1.3484
13.9112,486,1.5677
13.9156,528,1.7032
13.9200,480,1.5484
13.9244,416,1.3419
13.9288,440,1.4194
13.9332,509,1.6419
13.9376,497,1.6032
13.9419,409,1.3194
13.9463,383,1.2355
13.9506,489,1.5774
13.9549,637,2.0548
13.9593,743,2.3968
13.9637,811,2.6161
13.9681,963,3.1065
13.9724,1002,3.2323
13.9768,1001,3.2290
13.9811,952,3.0710
13.9855,712,2.2968
13.9899,569,1.8355
13.9943,513,1.6548
13.9987,441,1.4226
14.0032,364,1.1742
14.0076,380,1.2258
14.0119,473,1.5258
14.0163,509,1.6419
14.0208,448,1.4452
14.0252,393,1.2677
14.0296,437,1.4097
14.0339,507,1.6355
14.0383,496,1.6000
14.0427,422,1.3613
14.0471,410,1.3226
14.0515,485,1.5645
14.0587,502,1.6194
14.0632,430,1.3871
14.0677,434,1.4000
14.0721,513,1.6548
14.0764,542,1.7484
14.0807,483,1.5581
14.0851,433,1.3968
14.0895,478,1.5419
14.0939,551,1.7774
14.0983,543,1.7516
14.1026,474,1.5290
14.1070,460,1.4839
14.1113,533,1.7194
14.1157,579,1.8677
14.1201,537,1.7323
14.1245,476,1.5355
14.1289,508,1.6387
14.1333,586,1.8903
14.1377,591,1.9065
14.1421,525,1.6935
14.1465,502,1.6194
14.1509,573,1.8484
14.1552,629,2.0290
14.1597,596,1.9226
14.1641,534,1.7226
14.1685,560,1.8065
14.1728,642,2.0710
14.1771,657,2.1194
14.1814,598,1.9290
14.1859,560,1.8065
14.1903,620,2.0000
14.1946,682,2.2000
14.1990,654,2.1097
14.2033,579,1.8677
14.2076,575,1.8548
14.2120,646,2.0839
14.2163,664,2.1419
14.2207,595,1.9194
14.2250,524,1.6903
14.2294,544,1.7548
14.2338,595,1.9194
14.2381,570,1.8387
14.2425,482,1.5548
14.2468,448,1.4452
14.2512,505,1.6290
14.2555,540,1.7419
14.2599,488,1.5742
14.2642,416,1.3419
14.2686,435,1.4032
14.2730,507,1.6355
14.2773,513,1.6548
14.2816,442,1.4258
14.2859,401,1.2935
14.2903,456,1.4710
14.2946,515,1.6613
14.2990,487,1.5710
14.3034,414,1.3355
14.3077,416,1.3419
14.3121,494,1.5935
14.3164,521,1.6806
14.3207,466,1.5032
14.3251,412,1.3290
14.3294,453,1.4613
14.3338,523,1.6871
14.3381,516,1.6645
14.3424,442,1.4258
14.3468,421,1.3581
14.3512,491,1.5839
14.3555,537,1.7323
14.3599,493,1.5903
14.3643,427,1.3774
14.3687,452,1.4581
14.3731,527,1.7000
14.3774,534,1.7226
14.3817,464,1.4968
14.3861,427,1.3774
14.3905,486,1.5677
14.3948,543,1.7516
14.3990,514,1.6581
14.4033,441,1.4226
14.4076,439,1.4161
14.4119,511,1.6484
14.4162,541,1.7452
14.4205,486,1.5677
14.4248,428,1.3806
14.4291,459,1.4806
14.4333,531,1.7129
14.4376,532,1.7161
14.4419,463,1.4935
14.4462,428,1.3806
14.4504,483,1.5581
14.4547,539,1.7387
14.4590,512,1.6516
14.4634,439,1.4161
14.4677,439,1.4161
14.4719,512,1.6516
14.4763,544,1.7548
14.4806,488,1.5742
14.4849,432,1.3935
14.4892,465,1.5000
14.4934,541,1.7452
14.4977,548,1.7677
14.5019,485,1.5645
14.5062,455,1.4677
14.5105,517,1.6677
14.5147,577,1.8613
14.5190,559,1.8032
14.5233,502,1.6194
14.5276,513,1.6548
14.5319,590,1.9032
14.5362,616,1.9871
14.5405,554,1.7871
14.5448,484,1.5613
14.5491,500,1.6129
14.5533,567,1.8290
14.5576,562,1.8129
14.5619,485,1.5645
14.5662,442,1.4258
14.5705,491,1.5839
14.5747,540,1.7419
14.5790,510,1.6452
14.5833,436,1.4065
14.5875,431,1.3903
14.5918,503,1.6226
14.5961,534,1.7226
14.6003,486,1.5677
14.6045,422,1.3613
14.6087,446,1.4387
14.6130,520,1.6774
14.6172,531,1.7129
14.6214,465,1.5000
14.6256,418,1.3484
14.6299,465,1.5000
14.6341,525,1.6935
14.6383,497,1.6032
14.6425,410,1.3226
14.6468,389,1.2548
14.6510,487,1.5710
14.6553,621,2.0032
14.6596,721,2.3258
14.6639,806,2.6000
14.6682,966,3.1161
14.6725,1003,3.2355
14.6768,1003,3.2355
14.6811,999,3.2226
14.6854,832,2.6839
14.6897,630,2.0323
14.6940,536,1.7290
14.6983,465,1.5000
14.7026,383,1.2355
14.7069,375,1.2097
14.7113,457,1.4742
14.7156,511,1.6484
14.7198,471,1.5194
14.7241,404,1.3032
14.7283,416,1.3419
14.7328,494,1.5935
14.7371,510,1.6452
14.7414,446,1.4387
14.7457,405,1.3065
14.7500,456,1.4710
14.7544,520,1.6774
14.7587,505,1.6290
14.7631,431,1.3903
14.7674,427,1.3774
14.7717,500,1.6129
14.7760,540,1.7419
14.7803,493,1.5903
14.7846,435,1.4032
14.7889,463,1.4935
14.7932,541,1.7452
14.7975,551,1.7774
14.8018,484,1.5613
14.8061,452,1.4581
14.8104,513,1.6548
14.8148,575,1.8548
14.8191,552,1.7806
14.8234,485,1.5645
14.8278,490,1.5806
14.8321,570,1.8387
14.8364,603,1.9452
14.8407,550,1.7742
14.8450,502,1.6194
14.8493,542,1.7484
14.8536,618,1.9935
14.8579,624,2.0129
14.8622,559,1.8032
14.8665,536,1.7290
14.8708,606,1.9548
14.8751,666,2.1484
14.8794,639,2.0613
14.8837,569,1.8355
14.8880,579,1.8677
14.8923,657,2.1194
14.8965,688,2.2194
14.9008,633,2.0419
14.9051,574,1.8516
14.9093,608,1.9613
14.9136,672,2.1677
14.9179,664,2.1419
14.9222,580,1.8710
14.9265,535,1.7258
14.9309,583,1.8806
14.9352,616,1.9871
14.9395,567,1.8290
14.9439,476,1.5355
14.9482,467,1.5065
14.9524,531,1.7129
14.9587,512,1.6516
14.9633,430,1.3871
14.9676,417,1.3452
14.9718,483,1.5581
14.9760,513,1.6548
14.9803,460,1.4839
14.9846,397,1.2806
14.9889,419,1.3516
14.9932,493,1.5903
14.9975,502,1.6194
15.0018,433,1.3968
15.0061,394,1.2710
15.0114,472,1.5226
15.0158,515,1.6613
15.0202,468,1.5097
15.0285,422,1.3613
15.0328,498,1.6065
15.0371,516,1.6645
15.0413,454,1.4645
15.0455,409,1.3194
15.0498,453,1.4613
15.0540,521,1.6806
15.0582,515,1.6613
15.0624,443,1.4290
15.0666,417,1.3452
15.0709,479,1.5452
15.0751,529,1.7065
15.0793,499,1.6097
15.0835,425,1.3710
15.0878,427,1.3774
15.0920,500,1.6129
15.0962,533,1.7194
15.1004,486,1.5677
15.1046,424,1.3677
15.1089,446,1.4387
15.1131,519,1.6742
15.1173,528,1.7032
15.1216,463,1.4935
15.1258,418,1.3484
15.1301,466,1.5032
15.1343,527,1.7000
15.1385,513,1.6548
15.1427,440,1.4194
15.1470,420,1.3548
15.1512,485,1.5645
15.1554,532,1.7161
15.1597,497,1.6032
15.1640,426,1.3742
15.1685,439,1.4161
15.1728,516,1.6645
15.1771,533,1.7194
15.1814,468,1.5097
15.1856,422,1.3613
15.1899,465,1.5000
15.1941,532,1.7161
15.1983,523,1.6871
15.2025,450,1.4516
15.2067,427,1.3774
15.2110,490,1.5806
15.2152,541,1.7452
15.2195,510,1.6452
15.2237,438,1.4129
15.2279,440,1.4194
15.2321,515,1.6613
15.2364,545,1.7581
15.2406,492,1.5871
15.2448,433,1.3968
15.2490,462,1.4903
15.2540,543,1.7516
15.2591,521,1.6806
15.2634,450,1.4516
15.2677,453,1.4613
15.2720,532,1.7161
15.2763,571,1.8419
15.2806,521,1.6806
15.2848,467,1.5065
15.2891,506,1.6323
15.2934,590,1.9032
15.2977,610,1.9677
15.3020,544,1.7548
15.3063,500,1.6129
15.3105,549,1.7710
15.3148,598,1.9290
15.3191,563,1.8161
15.3234,484,1.5613
15.3277,472,1.5226
15.3319,537,1.7323
15.3362,561,1.8097
15.3405,503,1.6226
15.3447,435,1.4032
15.3490,457,1.4742
15.3533,527,1.7000
15.3576,532,1.7161
15.3619,463,1.4935
15.3661,425,1.3710
15.3704,480,1.5484
15.3747,539,1.7387
15.3790,512,1.6516
15.3833,439,1.4161
15.3875,432,1.3935
15.3918,502,1.6194
15.3960,536,1.7290
15.4003,487,1.5710
15.4046,414,1.3355
15.4089,417,1.3452
15.4131,481,1.5516
15.4174,500,1.6129
15.4217,482,1.5548
15.4260,541,1.7452
15.4303,737,2.3774
15.4347,941,3.0355
15.4391,1001,3.2290
15.4434,1003,3.2355
15.4477,1000,3.2258
15.4520,981,3.1645
15.4563,803,2.5903
15.4606,568,1.8323
15.4649,398,1.2839
15.4691,386,1.2452
15.4734,459,1.4806
15.4777,477,1.5387
15.4820,422,1.3613
15.4863,394,1.2710
15.4906,454,1.4645
15.4948,512,1.6516
15.4991,488,1.5742
15.5034,415,1.3387
15.5077,412,1.3290
15.5120,488,1.5742
15.5163,525,1.6935
15.5206,473,1.5258
15.5249,413,1.3323
15.5292,448,1.4452
15.5335,524,1.6903
15.5377,529,1.7065
15.5420,462,1.4903
15.5463,429,1.3839
15.5506,488,1.5742
15.5549,550,1.7742
15.5591,530,1.7097
15.5634,458,1.4774
15.5677,456,1.4710
15.5720,533,1.7194
15.5763,570,1.8387
15.5805,523,1.6871
15.5848,464,1.4968
15.5891,496,1.6000
15.5934,573,1.8484
15.5977,584,1.8839
15.6020,520,1.6774
15.6062,487,1.5710
15.6105,547,1.7645
15.6148,611,1.9710
15.6190,595,1.9194
15.6234,525,1.6935
15.6277,524,1.6903
15.6319,603,1.9452
15.6362,644,2.0774
15.6405,598,1.9290
15.6448,542,1.7484
15.6491,574,1.8516
15.6533,653,2.1065
15.6576,665,2.1452
15.6619,602,1.9419
15.6662,563,1.8161
15.6705,620,2.0000
15.6748,677,2.1839
15.6790,655,2.1129
15.6833,577,1.8613
15.6875,560,1.8065
15.6918,622,2.0065
15.6960,648,2.0903
15.7002,590,1.9032
15.7044,506,1.6323
15.7086,507,1.6355
15.7128,565,1.8226
15.7171,566,1.8258
15.7214,489,1.5774
15.7257,428,1.3806
15.7300,463,1.4935
15.7343,521,1.6806
15.7386,500,1.6129
15.7431,417,1.3452
15.7475,400,1.2903
15.7518,470,1.5161
15.7561,504,1.6258
15.7605,452,1.4581
15.7648,386,1.2452
15.7691,414,1.3355
15.7734,488,1.5742
15.7777,496,1.6000
15.7819,429,1.3839
15.7862,391,1.2613
15.7905,447,1.4419
15.7948,509,1.6419
15.7991,487,1.5710
15.8033,415,1.3387
15.8076,409,1.3194
15.8119,481,1.5516
15.8162,520,1.6774
15.8204,470,1.5161
15.8247,407,1.3129
15.8290,433,1.3968
15.8333,510,1.6452
15.8376,517,1.6677
15.8418,452,1.4581
15.8460,410,1.3226
15.8502,457,1.4742
15.8544,523,1.6871
15.8589,507,1.6355
15.8632,432,1.3935
15.8675,423,1.3645
15.8717,493,1.5903
15.8760,531,1.7129
15.8802,488,1.5742
15.8844,421,1.3581
15.8886,436,1.4065
15.8929,511,1.6484
15.8972,528,1.7032
15.9014,467,1.5065
15.9056,417,1.3452
15.9098,458,1.4774
15.9140,525,1.6935
15.9183,521,1.6806
15.9225,449,1.4484
15.9267,420,1.3548
15.9310,480,1.5484
15.9352,532,1.7161
15.9394,504,1.6258
15.9436,433,1.3968
15.9478,429,1.3839
15.9521,503,1.6226
15.9563,535,1.7258
15.9605,486,1.5677
15.9647,425,1.3710
15.9689,446,1.4387
15.9731,521,1.6806
15.9773,534,1.7226
15.9815,471,1.5194
15.9858,424,1.3677
15.9901,471,1.5194
15.9944,538,1.7355
15.9987,523,1.6871
16.0031,447,1.4419
16.0074,434,1.4000
16.0117,506,1.6323
16.0161,547,1.7645
16.0205,500,1.6129
16.0249,442,1.4258
16.0293,476,1.5355
16.0335,555,1.7903
16.0378,564,1.8194
16.0421,499,1.6097
16.0464,468,1.5097
16.0507,536,1.7290
16.0550,610,1.9677
16.0592,597,1.9258
16.0635,520,1.6774
16.0679,507,1.6355
16.0722,570,1.8387
16.0766,591,1.9065
16.0809,528,1.7032
16.0851,465,1.5000
16.0894,489,1.5774
16.0937,553,1.7839
16.0980,546,1.7613
16.1022,469,1.5129
16.1065,429,1.3839
16.1108,482,1.5548
16.1151,539,1.7387
16.1194,512,1.6516
16.1236,439,1.4161
16.1279,436,1.4065
16.1321,509,1.6419
16.1363,542,1.7484
16.1405,494,1.5935
16.1447,431,1.3903
16.1489,452,1.4581
16.1532,526,1.6968
16.1592,514,1.6581
16.1636,431,1.3903
16.1679,410,1.3226
16.1721,470,1.5161
16.1764,511,1.6484
16.1806,506,1.6323
16.1848,543,1.7516
16.1890,707,2.2806
16.1933,931,3.0032
16.1975,1002,3.2323
16.2017,1004,3.2387
16.2059,1000,3.2258
16.2102,998,3.2194
16.2144,902,2.9097
16.2187,660,2.1290
16.2231,444,1.4323
16.2274,375,1.2097
16.2317,438,1.4129
16.2360,495,1.5968
16.2403,465,1.5000
16.2446,406,1.3097
16.2489,429,1.3839
16.2532,503,1.6226
16.2574,515,1.6613
16.2616,451,1.4548
16.2658,405,1.3065
16.2700,451,1.4548
16.2742,519,1.6742
16.2785,514,1.6581
16.2827,443,1.4290
16.2869,420,1.3548
16.2911,485,1.5645
16.2953,538,1.7355
16.2996,511,1.6484
16.3038,441,1.4226
16.3080,444,1.4323
16.3122,520,1.6774
16.3164,554,1.7871
16.3207,506,1.6323
16.3249,447,1.4419
16.3292,476,1.5355
16.3334,550,1.7742
16.3376,562,1.8129
16.3418,501,1.6161
16.3461,461,1.4871
16.3503,513,1.6548
16.3545,581,1.8742
16.3587,572,1.8452
16.3630,505,1.6290
16.3672,490,1.5806
16.3714,561,1.8097
16.3756,615,1.9839
16.3799,585,1.8871
16.3841,521,1.6806
16.3883,534,1.7226
16.3925,614,1.9806
16.3968,647,2.0871
16.4010,595,1.9194
16.4052,544,1.7548
16.4094,581,1.8742
16.4136,656,2.1161
16.4178,668,2.1548
16.4221,605,1.9516
16.4263,567,1.8290
16.4305,623,2.0097
16.4348,683,2.2032
16.4390,665,2.1452
16.4432,587,1.8935
16.4474,562,1.8129
16.4516,618,1.9935
16.4558,649,2.0935
16.4601,595,1.9194
16.4643,510,1.6452
16.4685,504,1.6258
16.4728,563,1.8161
16.4771,570,1.8387
16.4813,495,1.5968
16.4856,431,1.3903
16.4898,459,1.4806
16.4975,519,1.6742
16.5018,446,1.4387
16.5062,400,1.2903
16.5106,450,1.4516
16.5150,508,1.6387
16.5193,482,1.5548
16.5236,407,1.3129
16.5279,402,1.2968
16.5321,474,1.5290
16.5364,510,1.6452
16.5407,460,1.4839
16.5450,399,1.2871
16.5493,427,1.3774
16.5535,502,1.6194
16.5578,512,1.6516
16.5620,446,1.4387
16.5662,407,1.3129
16.5705,458,1.4774
16.5747,522,1.6839
16.5789,507,1.6355
16.5831,434,1.4000
16.5874,420,1.3548
16.5916,488,1.5742
16.5958,534,1.7226
16.6000,496,1.6000
16.6043,426,1.3742
16.6086,439,1.4161
16.6130,518,1.6710
16.6173,534,1.7226
16.6217,468,1.5097
16.6260,421,1.3581
16.6304,474,1.5290
16.6349,536,1.7290
16.6393,510,1.6452
16.6437,437,1.4097
16.6482,437,1.4097
16.6526,515,1.6613
16.6571,539,1.7387
16.6615,473,1.5258
16.6660,422,1.3613
16.6704,471,1.5194
16.6749,537,1.7323
16.6794,512,1.6516
16.6837,438,1.4129
16.6880,436,1.4065
16.6924,511,1.6484
16.6968,540,1.7419
16.7012,481,1.5516
16.7056,427,1.3774
16.7099,465,1.5000
16.7143,536,1.7290
16.7186,527,1.7000
16.7230,450,1.4516
16.7274,432,1.3935
16.7318,503,1.6226
16.7362,543,1.7516
16.7406,495,1.5968
16.7450,432,1.3935
16.7493,459,1.4806
16.7537,533,1.7194
16.7602,506,1.6323
16.7646,438,1.4129
16.7690,460,1.4839
16.7739,541,1.7452
16.7783,537,1.7323
16.7826,464,1.4968
16.7870,439,1.4161
16.7913,503,1.6226
16.7957,554,1.7871
16.8001,515,1.6613
16.8044,445,1.4355
16.8088,460,1.4839
16.8132,537,1.7323
16.8175,551,1.7774
16.8219,484,1.5613
16.8262,440,1.4194
16.8306,494,1.5935
16.8350,556,1.7935
16.8393,533,1.7194
16.8437,457,1.4742
16.8481,457,1.4742
16.8525,533,1.7194
16.8569,561,1.8097
16.8613,506,1.6323
16.8656,455,1.4677
16.8700,502,1.6194
16.8743,576,1.8581
16.8787,569,1.8355
16.8831,500,1.6129
16.8875,495,1.5968
16.8919,578,1.8645
16.8962,628,2.0258
16.9007,581,1.8742
16.9051,507,1.6355
16.9095,527,1.7000
16.9139,589,1.9000
16.9182,580,1.8710
16.9226,502,1.6194
16.9270,466,1.5032
16.9314,523,1.6871
16.9358,564,1.8194
16.9402,515,1.6613
16.9446,438,1.4129
16.9490,451,1.4548
16.9534,525,1.6935
16.9577,536,1.7290
16.9621,467,1.5065
16.9665,430,1.3871
16.9709,487,1.5710
16.9753,542,1.7484
16.9797,511,1.6484
16.9841,438,1.4129
16.9885,446,1.4387
16.9930,522,1.6839
16.9973,537,1.7323
17.0017,459,1.4806
17.0061,393,1.2677
17.0105,435,1.4032
17.0148,518,1.6710
17.0192,570,1.8387
17.0236,627,2.0226
17.0280,788,2.5419
17.0324,999,3.2226
17.0367,1004,3.2387
17.0411,1003,3.2355
17.0455,1001,3.2290
17.0499,928,2.9935
17.0542,731,2.3581
17.0614,439,1.4161
17.0658,361,1.1645
17.0703,418,1.3484
17.0746,500,1.6129
17.0790,494,1.5935
17.0834,421,1.3581
17.0877,408,1.3161
17.0921,479,1.5452
17.0964,515,1.6613
17.1008,465,1.5000
17.1052,403,1.3000
17.1096,437,1.4097
17.1140,512,1.6516
17.1184,513,1.6548
17.1228,443,1.4290
17.1272,420,1.3548
17.1318,504,1.6258
17.1362,540,1.7419
17.1406,496,1.6000
17.1450,433,1.3968
17.1493,462,1.4903
17.1537,539,1.7387
17.1580,545,1.7581
17.1623,480,1.5484
17.1666,447,1.4419
17.1710,511,1.6484
17.1754,573,1.8484
17.1797,547,1.7645
17.1840,478,1.5419
17.1884,487,1.5710
17.1927,568,1.8323
17.1971,597,1.9258
17.2014,540,1.7419
17.2058,492,1.5871
17.2101,540,1.7419
17.2145,616,1.9871
17.2188,612,1.9742
17.2232,543,1.7516
17.2275,532,1.7161
17.2319,609,1.9645
17.2362,657,2.1194
17.2406,619,1.9968
17.2449,559,1.8032
17.2492,588,1.8968
17.2536,669,2.1581
17.2579,682,2.2000
17.2623,614,1.9806
17.2666,578,1.8645
17.2710,636,2.0516
17.2753,695,2.2419
17.2797,663,2.1387
17.2840,585,1.8871
17.2883,574,1.8516
17.2926,638,2.0581
17.2970,650,2.0968
17.3013,575,1.8548
17.3057,503,1.6226
17.3100,526,1.6968
17.3144,579,1.8677
17.3187,553,1.7839
17.3231,468,1.5097
17.3274,434,1.4000
17.3317,494,1.5935
17.3361,528,1.7032
17.3404,478,1.5419
17.3448,406,1.3097
17.3491,424,1.3677
17.3535,497,1.6032
17.3578,505,1.6290
17.3622,435,1.4032
17.3665,395,1.2742
17.3708,450,1.4516
17.3751,509,1.6419
17.3794,485,1.5645
17.3837,413,1.3323
17.3880,408,1.3161
17.3923,482,1.5548
17.3965,519,1.6742
17.4008,469,1.5129
17.4051,407,1.3129
17.4094,432,1.3935
17.4136,507,1.6355
17.4178,518,1.6710
17.4222,452,1.4581
17.4264,412,1.3290
17.4306,462,1.4903
17.4348,525,1.6935
17.4391,509,1.6419
17.4433,436,1.4065
17.4475,421,1.3581
17.4518,489,1.5774
17.4560,534,1.7226
17.4602,497,1.6032
17.4644,429,1.3839
17.4686,436,1.4065
17.4728,510,1.6452
17.4771,534,1.7226
17.4813,477,1.5387
17.4856,423,1.3645
17.4899,459,1.4806
17.4942,528,1.7032
17.4986,523,1.6871
17.5030,447,1.4419
17.5073,423,1.3645
17.5116,489,1.5774
17.5158,536,1.7290
17.5200,500,1.6129
17.5242,431,1.3903
17.5284,434,1.4000
17.5327,509,1.6419
17.5370,535,1.7258
17.5413,477,1.5387
17.5456,422,1.3613
17.5499,459,1.4806
17.5543,530,1.7097
17.5586,525,1.6935
17.5629,451,1.4548
17.5672,427,1.3774
17.5715,491,1.5839
17.5758,540,1.7419
17.5800,508,1.6387
17.5843,436,1.4065
17.5886,444,1.4323
17.5930,518,1.6710
17.5973,539,1.7387
17.6016,481,1.5516
17.6058,431,1.3903
17.6100,470,1.5161
17.6143,540,1.7419
17.6185,537,1.7323
17.6228,466,1.5032
17.6270,437,1.4097
17.6312,496,1.6000
17.6355,552,1.7806
17.6397,526,1.6968
17.6439,454,1.4645
17.6481,451,1.4548
17.6523,524,1.6903
17.6566,558,1.8000
17.6609,507,1.6355
17.6652,443,1.4290
17.6695,472,1.5226
17.6737,543,1.7516
17.6780,553,1.7839
17.6822,486,1.5677
17.6865,446,1.4387
17.6907,498,1.6065
17.6950,563,1.8161
17.6993,547,1.7645
17.7036,478,1.5419
17.7079,475,1.5323
17.7122,551,1.7774
17.7165,592,1.9097
17.7208,552,1.7806
17.7252,503,1.6226
17.7294,539,1.7387
17.7337,607,1.9581
17.7380,607,1.9581
17.7422,533,1.7194
17.7464,479,1.5452
17.7506,520,1.6774
17.7548,579,1.8677
17.7591,557,1.7968
17.7633,476,1.5355
17.7674,449,1.4484
17.7716,508,1.6387
17.7759,551,1.7774
17.7801,509,1.6419
17.7845,436,1.4065
17.7888,446,1.4387
17.7931,523,1.6871
17.7975,540,1.7419
17.8018,477,1.5387
17.8061,428,1.3806
17.8105,476,1.5355
17.8148,539,1.7387
17.8191,520,1.6774
17.8234,445,1.4355
17.8276,424,1.3677
17.8319,484,1.5613
17.8362,509,1.6419
17.8404,451,1.4548
17.8447,390,1.2581
17.8489,446,1.4387
17.8531,612,1.9742
17.8573,770,2.4839
17.8615,854,2.7548
17.8657,943,3.0419
17.8699,1001,3.2290
17.8741,1003,3.2355
17.8783,997,3.2161
17.8825,825,2.6613
17.8867,579,1.8677
17.8909,487,1.5710
17.8952,481,1.5516
17.8994,448,1.4452
17.9036,384,1.2387
17.9078,387,1.2484
17.9120,464,1.4968
17.9163,511,1.6484
17.9206,465,1.5000
17.9250,399,1.2871
17.9293,421,1.3581
17.9336,498,1.6065
17.9379,510,1.6452
17.9422,443,1.4290
17.9465,405,1.3065
17.9509,460,1.4839
17.9561,525,1.6935
17.9610,475,1.5323
17.9653,415,1.3387
17.9697,449,1.4484
17.9740,527,1.7000
17.9784,530,1.7097
17.9828,460,1.4839
17.9872,435,1.4032
17.9915,503,1.6226
17.9958,558,1.8000
18.0001,529,1.7065
18.0044,462,1.4903
18.0087,473,1.5258
18.0131,553,1.7839
18.0175,577,1.8613
18.0218,518,1.6710
18.0262,476,1.5355
18.0304,527,1.7000
18.0347,598,1.9290
18.0390,590,1.9032
18.0433,519,1.6742
18.0476,507,1.6355
18.0519,582,1.8774
18.0562,634,2.0452
18.0605,599,1.9323
18.0647,537,1.7323
18.0690,558,1.8000
18.0733,637,2.0548
18.0775,665,2.1452
18.0818,604,1.9484
18.0862,560,1.8065
18.0905,610,1.9677
18.0948,678,2.1871
18.0990,669,2.1581
18.1033,596,1.9226
18.1076,575,1.8548
18.1119,636,2.0516
18.1161,673,2.1710
18.1204,623,2.0097
18.1247,542,1.7484
18.1289,540,1.7419
18.1332,597,1.9258
18.1375,602,1.9419
18.1417,524,1.6903
18.1460,456,1.4710
18.1503,485,1.5645
18.1547,541,1.7452
18.1590,520,1.6774
18.1632,438,1.4129
18.1675,409,1.3194
18.1718,470,1.5161
18.1761,515,1.6613
18.1803,472,1.5226
18.1846,400,1.2903
18.1889,410,1.3226
18.1931,483,1.5581
18.1974,503,1.6226
18.2017,440,1.4194
18.2060,388,1.2516
18.2102,430,1.3871
18.2145,500,1.6129
18.2188,495,1.5968
18.2232,422,1.3613
18.2275,399,1.2871
18.2318,467,1.5065
18.2361,516,1.6645
18.2403,480,1.5484
18.2445,411,1.3258
18.2488,422,1.3613
18.2530,497,1.6032
18.2572,522,1.6839
18.2615,466,1.5032
18.2657,413,1.3323
18.2699,447,1.4419
18.2744,520,1.6774
18.2786,517,1.6677
18.2829,447,1.4419
18.2871,418,1.3484
18.2913,478,1.5419
18.2955,534,1.7226
18.2998,509,1.6419
18.3040,436,1.4065
18.3082,431,1.3903
18.3124,503,1.6226
18.3166,537,1.7323
18.3209,489,1.5774
18.3251,425,1.3710
18.3294,446,1.4387
18.3336,520,1.6774
18.3378,532,1.7161
18.3421,467,1.5065
18.3463,420,1.3548
18.3505,465,1.5000
18.3548,532,1.7161
18.3590,523,1.6871
18.3632,450,1.4516
18.3674,425,1.3710
18.3716,489,1.5774
18.3759,538,1.7355
18.3801,507,1.6355
18.3843,436,1.4065
18.3885,439,1.4161
18.3927,513,1.6548
18.3969,543,1.7516
18.4012,487,1.5710
18.4054,429,1.3839
18.4096,459,1.4806
18.4139,534,1.7226
18.4181,541,1.7452
18.4223,476,1.5355
18.4265,435,1.4032
18.4308,485,1.5645
18.4351,549,1.7710
18.4393,533,1.7194
18.4435,460,1.4839
18.4477,444,1.4323
18.4519,511,1.6484
18.4562,557,1.7968
18.4604,519,1.6742
18.4646,448,1.4452
18.4687,457,1.4742
18.4730,533,1.7194
18.4772,564,1.8194
18.4814,514,1.6581
18.4856,463,1.4935
18.4898,497,1.6032
18.4940,573,1.8484
18.4982,585,1.8871
18.5025,528,1.7032
18.5067,505,1.6290
18.5109,570,1.8387
18.5151,632,2.0387
18.5194,608,1.9613
18.5236,524,1.6903
18.5278,497,1.6032
18.5320,553,1.7839
18.5362,593,1.9129
18.5404,550,1.7742
18.5447,471,1.5194
18.5489,473,1.5258
18.5531,542,1.7484
18.5574,558,1.8000
18.5617,493,1.5903
18.5661,438,1.4129
18.5703,478,1.5419
18.5746,546,1.7613
18.5788,541,1.7452
18.5830,467,1.5065
18.5872,439,1.4161
18.5914,499,1.6097
18.5956,551,1.7774
18.5999,521,1.6806
18.6042,448,1.4452
18.6084,443,1.4290
18.6126,507,1.6355
18.6168,521,1.6806
18.6210,459,1.4806
18.6253,403,1.3000
18.6295,470,1.5161
18.6337,638,2.0581
18.6379,788,2.5419
18.6421,862,2.7806
18.6464,956,3.0839
18.6506,1002,3.2323
18.6548,1002,3.2323
18.6591,999,3.2226
18.6633,822,2.6516
18.6676,599,1.9323
18.6718,519,1.6742
18.6760,496,1.6000
18.6802,444,1.4323
18.6844,381,1.2290
18.6886,397,1.2806
18.6929,484,1.5613
18.6972,514,1.6581
18.7015,458,1.4774
18.7059,399,1.2871
18.7102,438,1.4129
18.7146,509,1.6419
18.7188,503,1.6226
18.7231,433,1.3968
18.7274,409,1.3194
18.7317,473,1.5258
18.7359,526,1.6968
18.7402,494,1.5935
18.7445,424,1.3677
18.7489,435,1.4032
18.7533,514,1.6581
18.7576,537,1.7323
18.7619,477,1.5387
18.7662,429,1.3839
18.7705,477,1.5387
18.7749,549,1.7710
18.7791,542,1.7484
18.7835,472,1.5226
18.7878,459,1.4806
18.7921,531,1.7129
18.7963,579,1.8677
18.8006,542,1.7484
18.8048,479,1.5452
18.8091,497,1.6032
18.8135,578,1.8645
18.8178,600,1.9355
18.8221,540,1.7419
18.8264,497,1.6032
18.8306,549,1.7710
18.8349,622,2.0065
18.8392,616,1.9871
18.8434,548,1.7677
18.8477,534,1.7226
18.8519,607,1.9581
18.8564,659,2.1258
18.8613,611,1.9710
18.8656,554,1.7871
18.8703,595,1.9194
18.8745,669,2.1581
18.8788,669,2.1581
18.8830,598,1.9290
18.8873,565,1.8226
18.8915,623,2.0097
18.8957,671,2.1645
18.8999,636,2.0516
18.9042,548,1.7677
18.9085,533,1.7194
18.9128,593,1.9129
18.9171,604,1.9484
18.9215,531,1.7129
18.9258,457,1.4742
18.9301,476,1.5355
18.9343,537,1.7323
18.9386,528,1.7032
18.9430,446,1.4387
18.9473,410,1.3226
18.9515,467,1.5065
18.9558,516,1.6645
18.9601,480,1.5484
18.9644,403,1.3000
18.9687,404,1.3032
18.9729,479,1.5452
18.9772,506,1.6323
18.9814,449,1.4484
18.9857,391,1.2613
18.9899,421,1.3581
18.9941,495,1.5968
18.9983,503,1.6226
19.0026,437,1.4097
19.0068,400,1.2903
19.0111,455,1.4677
19.0153,517,1.6677
19.0195,500,1.6129
19.0237,427,1.3774
19.0280,414,1.3355
19.0322,483,1.5581
19.0364,525,1.6935
19.0408,482,1.5548
19.0450,415,1.3387
19.0493,433,1.3968
19.0535,506,1.6323
19.0577,524,1.6903
19.0619,463,1.4935
19.0661,413,1.3323
19.0704,453,1.4613
19.0746,524,1.6903
19.0788,519,1.6742
19.0830,446,1.4387
19.0872,415,1.3387
19.0915,475,1.5323
19.0957,531,1.7129
19.0999,502,1.6194
19.1042,428,1.3806
19.1084,423,1.3645
19.1126,495,1.5968
19.1168,529,1.7065
19.1211,480,1.5484
19.1253,416,1.3419
19.1295,438,1.4129
19.1338,512,1.6516
19.1381,521,1.6806
19.1424,453,1.4613
19.1468,411,1.3258
19.1511,466,1.5032
19.1554,528,1.7032
19.1597,506,1.6323
19.1641,430,1.3871
19.1684,425,1.3710
19.1727,500,1.6129
19.1771,532,1.7161
19.1815,478,1.5419
19.1858,419,1.3516
19.1901,454,1.4645
19.1944,527,1.7000
19.1987,523,1.6871
19.2031,450,1.4516
19.2074,422,1.3613
19.2118,487,1.5710
19.2161,537,1.7323
19.2204,501,1.6161
19.2247,432,1.3935
19.2290,443,1.4290
19.2333,518,1.6710
19.2376,540,1.7419
19.2419,481,1.5516
19.2462,429,1.3839
19.2504,468,1.5097
19.2547,534,1.7226
19.2590,527,1.7000
19.2634,454,1.4645
19.2677,434,1.4000
19.2721,504,1.6258
19.2765,550,1.7742
19.2809,506,1.6323
19.2854,445,1.4355
19.2898,479,1.5452
19.2942,558,1.8000
19.2987,564,1.8194
19.3032,492,1.5871
19.3077,478,1.5419
19.3121,559,1.8032
19.3165,617,1.9903
19.3210,577,1.8613
19.3254,505,1.6290
19.3299,521,1.6806
19.3342,580,1.8710
19.3386,573,1.8484
19.3430,496,1.6000
19.3474,459,1.4806
19.3517,512,1.6516
19.3561,553,1.7839
19.3605,512,1.6516
19.3649,434,1.4000
19.3692,442,1.4258
19.3736,518,1.6710
19.3780,532,1.7161
19.3824,464,1.4968
19.3868,422,1.3613
19.3912,477,1.5387
19.3955,537,1.7323
19.3998,513,1.6548
19.4042,439,1.4161
19.4085,434,1.4000
19.4130,508,1.6387
19.4173,530,1.7097
19.4218,457,1.4742
19.4262,383,1.2355
19.4306,421,1.3581
19.4350,513,1.6548
19.4394,583,1.8806
19.4437,648,2.0903
19.4481,805,2.5968
19.4525,999,3.2226
19.4570,1005,3.2419
19.4622,1003,3.2355
19.4667,995,3.2097
19.4711,830,2.6774
19.4754,640,2.0645
19.4798,490,1.5806
19.4841,379,1.2226
19.4885,378,1.2194
19.4929,468,1.5097
19.4973,511,1.6484
19.5016,455,1.4677
19.5060,398,1.2839
19.5104,433,1.3968
19.5148,504,1.6258
19.5191,496,1.6000
19.5235,422,1.3613
19.5279,404,1.3032
19.5322,475,1.5323
19.5366,522,1.6839
19.5410,476,1.5355
19.5453,412,1.3290
19.5497,438,1.4129
19.5541,518,1.6710
19.5584,529,1.7065
19.5628,460,1.4839
19.5672,430,1.3871
19.5716,494,1.5935
19.5760,550,1.7742
19.5803,520,1.6774
19.5847,449,1.4484
19.5891,463,1.4935
19.5935,544,1.7548
19.5979,566,1.8258
19.6022,506,1.6323
19.6066,464,1.4968
19.6110,520,1.6774
19.6154,591,1.9065
19.6198,573,1.8484
19.6241,504,1.6258
19.6285,505,1.6290
19.6330,586,1.8903
19.6374,621,2.0032
19.6418,567,1.8290
19.6462,517,1.6677
19.6506,566,1.8258
19.6549,643,2.0742
19.6593,638,2.0581
19.6636,571,1.8419
19.6680,558,1.8000
19.6724,634,2.0452
19.6767,681,2.1968
19.6811,633,2.0419
19.6855,573,1.8484
19.6898,600,1.9355
19.6942,675,2.1774
19.6986,674,2.1742
19.7030,598,1.9290
19.7074,557,1.7968
19.7118,606,1.9548
19.7162,642,2.0710
19.7206,589,1.9000
19.7249,501,1.6161
19.7293,496,1.6000
19.7337,559,1.8032
19.7381,561,1.8097
19.7424,481,1.5516
19.7468,425,1.3710
19.7512,469,1.5129
19.7555,524,1.6903
19.7622,447,1.4419
19.7667,394,1.2710
19.7710,443,1.4290
19.7754,507,1.6355
19.7797,486,1.5677
19.7841,410,1.3226
19.7885,401,1.2935
19.7929,474,1.5290
19.7973,508,1.6387
19.8016,453,1.4613
19.8060,398,1.2839
19.8103,435,1.4032
19.8147,510,1.6452
19.8191,504,1.6258
19.8235,430,1.3871
19.8279,411,1.3258
19.8323,480,1.5484
19.8367,524,1.6903
19.8411,477,1.5387
19.8455,412,1.3290
19.8499,439,1.4161
19.8543,515,1.6613
19.8587,520,1.6774
19.8631,446,1.4387
19.8675,415,1.3387
19.8719,480,1.5484
19.8763,530,1.7097
19.8806,495,1.5968
19.8850,426,1.3742
19.8893,438,1.4129
19.8936,514,1.6581
19.8980,533,1.7194
19.9023,468,1.5097
19.9066,423,1.3645
19.9109,470,1.5161
19.9153,536,1.7290
19.9196,519,1.6742
19.9240,443,1.4290
19.9283,433,1.3968
19.9327,506,1.6323
19.9370,542,1.7484
19.9414,490,1.5806
19.9457,429,1.3839
19.9501,457,1.4742
19.9544,531,1.7129
19.9588,529,1.7065
19.9631,459,1.4806
19.9675,430,1.3871
19.9718,493,1.5903
19.9762,544,1.7548
19.9805,509,1.6419
19.9849,437,1.4097
19.9892,446,1.4387
19.9935,522,1.6839
19.9979,543,1.7516
20.0022,480,1.5484
20.0066,431,1.3903
20.0110,478,1.5419
20.0154,544,1.7548
20.0198,522,1.6839
20.0279,436,1.4065
20.0323,507,1.6355
20.0367,550,1.7742
20.0410,509,1.6419
20.0454,443,1.4290
20.0499,467,1.5065
20.0543,545,1.7581
20.0586,548,1.7677
20.0629,479,1.5452
20.0673,444,1.4323
20.0716,504,1.6258
20.0760,565,1.8226
20.0803,539,1.7387
20.0847,472,1.5226
20.0891,484,1.5613
20.0934,566,1.8258
20.0977,594,1.9161
20.1020,547,1.7645
20.1064,509,1.6419
20.1107,565,1.8226
20.1151,630,2.0323
20.1194,611,1.9710
20.1238,525,1.6935
20.1282,494,1.5935
20.1325,558,1.8000
20.1368,592,1.9097
20.1411,539,1.7387
20.1454,461,1.4871
20.1497,473,1.5258
20.1540,542,1.7484
20.1582,550,1.7742
20.1625,480,1.5484
20.1668,434,1.4000
20.1711,484,1.5613
20.1754,547,1.7645
20.1796,532,1.7161
20.1839,457,1.4742
20.1882,441,1.4226
20.1925,507,1.6355
20.1967,548,1.7677
20.2010,503,1.6226
20.2053,434,1.4000
20.2096,444,1.4323
20.2139,502,1.6194
20.2181,499,1.6097
20.2224,430,1.3871
20.2267,415,1.3387
20.2310,549,1.7710
20.2354,751,2.4226
20.2397,892,2.8774
20.2440,973,3.1387
20.2483,1003,3.2355
20.2526,1003,3.2355
20.2569,1002,3.2323
20.2612,885,2.8548
20.2655,597,1.9258
20.2698,461,1.4871
20.2741,476,1.5355
20.2784,477,1.5387
20.2827,420,1.3548
20.2869,391,1.2613
20.2913,450,1.4516
20.2956,516,1.6645
20.2998,495,1.5968
20.3041,421,1.3581
20.3084,409,1.3194
20.3126,480,1.5484
20.3169,521,1.6806
20.3212,476,1.5355
20.3255,411,1.3258
20.3297,431,1.3903
20.3339,510,1.6452
20.3381,527,1.7000
20.3423,466,1.5032
20.3466,421,1.3581
20.3508,466,1.5032
20.3551,535,1.7258
20.3620,485,1.5645
20.3663,433,1.3968
20.3706,477,1.5387
20.3748,550,1.7742
20.3790,551,1.7774
20.3832,485,1.5645
20.3875,457,1.4742
20.3917,521,1.6806
20.3960,580,1.8710
20.4002,557,1.7968
20.4045,492,1.5871
20.4087,491,1.5839
20.4130,569,1.8355
20.4172,607,1.9581
20.4214,565,1.8226
20.4256,506,1.6323
20.4299,533,1.7194
20.4341,612,1.9742
20.4383,628,2.0258
20.4425,572,1.8452
20.4467,532,1.7161
20.4510,581,1.8742
20.4552,653,2.1065
20.4594,648,2.0903
20.4636,579,1.8677
20.4679,561,1.8097
20.4722,628,2.0258
20.4764,680,2.1935
20.4807,646,2.0839
20.4849,577,1.8613
20.4891,583,1.8806
20.4933,649,2.0935
20.4975,671,2.1645
20.5017,607,1.9581
20.5059,533,1.7194
20.5101,545,1.7581
20.5144,602,1.9419
20.5187,593,1.9129
20.5230,508,1.6387
20.5272,455,1.4677
20.5314,495,1.5968
20.5357,542,1.7484
20.5399,514,1.6581
20.5441,435,1.4032
20.5483,414,1.3355
20.5526,479,1.5452
20.5568,516,1.6645
20.5610,471,1.5194
20.5653,402,1.2968
20.5695,412,1.3290
20.5738,485,1.5645
20.5780,504,1.6258
20.5821,444,1.4323
20.5863,392,1.2645
20.5905,430,1.3871
20.5948,502,1.6194
20.5990,502,1.6194
20.6032,435,1.4032
20.6074,403,1.3000
20.6116,461,1.4871
20.6159,519,1.6742
20.6201,497,1.6032
20.6243,426,1.3742
20.6286,418,1.3484
20.6328,489,1.5774
20.6370,526,1.6968
20.6413,481,1.5516
20.6455,417,1.3452
20.6497,435,1.4032
20.6540,512,1.6516
20.6583,527,1.7000
20.6626,462,1.4903
20.6669,416,1.3419
20.6712,466,1.5032
20.6755,532,1.7161
20.6797,518,1.6710
20.6840,443,1.4290
20.6884,428,1.3806
20.6927,500,1.6129
20.6970,538,1.7355
20.7013,490,1.5806
20.7057,423,1.3645
20.7101,449,1.4484
20.7144,526,1.6968
20.7187,532,1.7161
20.7230,463,1.4935
20.7273,424,1.3677
20.7315,479,1.5452
20.7358,536,1.7290
20.7400,516,1.6645
20.7442,442,1.4258
20.7484,431,1.3903
20.7526,499,1.6097
20.7568,541,1.7452
20.7611,499,1.6097
20.7653,434,1.4000
20.7695,448,1.4452
20.7737,523,1.6871
20.7780,542,1.7484
20.7822,481,1.5516
20.7865,431,1.3903
20.7908,471,1.5194
20.7951,540,1.7419
20.7994,532,1.7161
20.8036,461,1.4871
20.8079,436,1.4065
20.8122,501,1.6161
20.8165,552,1.7806
20.8208,515,1.6613
20.8252,446,1.4387
20.8294,457,1.4742
20.8337,534,1.7226
20.8380,553,1.7839
20.8424,496,1.6000
20.8467,451,1.4548
20.8510,502,1.6194
20.8554,576,1.8581
20.8597,569,1.8355
20.8641,499,1.6097
20.8683,493,1.5903
20.8726,578,1.8645
20.8770,633,2.0419
20.8813,589,1.9000
20.8856,513,1.6548
20.8899,522,1.6839
20.8942,582,1.8774
20.8985,587,1.8935
20.9028,515,1.6613
20.9071,464,1.4968
20.9115,508,1.6387
20.9158,559,1.8032
20.9200,531,1.7129
20.9243,454,1.4645
20.9286,442,1.4258
20.9330,514,1.6581
20.9372,551,1.7774
20.9415,502,1.6194
20.9458,438,1.4129
20.9501,460,1.4839
20.9544,535,1.7258
20.9586,544,1.7548
20.9630,474,1.5290
20.9673,432,1.3935
20.9716,485,1.5645
20.9759,540,1.7419
20.9802,499,1.6097
20.9845,408,1.3161
20.9887,399,1.2871
20.9930,497,1.6032
20.9973,605,1.9516
21.0016,686,2.2129
21.0059,771,2.4871
21.0101,944,3.0452
21.0144,1003,3.2355
21.0187,1001,3.2290
21.0230,999,3.2226
21.0273,852,2.7484
21.0315,667,2.1516
21.0358,562,1.8129
21.0401,475,1.5323
21.0444,390,1.2581
21.0488,392,1.2645
21.0531,478,1.5419
21.0574,521,1.6806
21.0616,475,1.5323
21.0659,410,1.3226
21.0703,438,1.4129
21.0746,511,1.6484
21.0789,517,1.6677
21.0832,449,1.4484
21.0875,415,1.3387
21.0918,474,1.5290
21.0961,534,1.7226
21.1004,509,1.6419
21.1047,439,1.4161
21.1090,438,1.4129
21.1132,513,1.6548
21.1175,545,1.7581
21.1218,494,1.5935
21.1261,436,1.4065
21.1304,473,1.5258
21.1348,548,1.7677
21.1391,552,1.7806
21.1433,486,1.5677
21.1476,456,1.4710
21.1518,518,1.6710
21.1562,576,1.8581
21.1605,553,1.7839
21.1647,486,1.5677
21.1690,488,1.5742
21.1733,566,1.8258
21.1776,601,1.9387
21.1818,552,1.7806
21.1861,497,1.6032
21.1904,531,1.7129
21.1946,608,1.9613
21.1988,620,2.0000
21.2030,560,1.8065
21.2072,524,1.6903
21.2114,580,1.8710
21.2157,648,2.0903
21.2199,638,2.0581
21.2242,568,1.8323
21.2284,560,1.8065
21.2326,631,2.0355
21.2369,679,2.1903
21.2411,640,2.0645
21.2453,572,1.8452
21.2496,586,1.8903
21.2539,661,2.1323
21.2581,677,2.1839
21.2624,608,1.9613
21.2668,547,1.7645
21.2710,578,1.8645
21.2753,630,2.0323
21.2796,608,1.9613
21.2838,517,1.6677
21.2880,474,1.5290
21.2923,522,1.6839
21.2965,561,1.8097
21.3007,517,1.6677
21.3049,437,1.4097
21.3091,429,1.3839
21.3134,495,1.5968
21.3176,519,1.6742
21.3219,462,1.4903
21.3261,401,1.2935
21.3303,427,1.3774
21.3346,499,1.6097
21.3388,506,1.6323
21.3430,438,1.4129
21.3472,399,1.2871
21.3514,448,1.4452
21.3556,514,1.6581
21.3598,499,1.6097
21.3640,426,1.3742
21.3682,407,1.3129
21.3725,473,1.5258
21.3767,524,1.6903
21.3809,489,1.5774
21.3852,417,1.3452
21.3894,425,1.3710
21.3936,501,1.6161
21.3978,528,1.7032
21.4020,473,1.5258
21.4062,417,1.3452
21.4105,447,1.4419
21.4147,517,1.6677
21.4189,524,1.6903
21.4232,458,1.4774
21.4274,421,1.3581
21.4317,474,1.5290
21.4359,531,1.7129
21.4401,510,1.6452
21.4443,439,1.4161
21.4486,431,1.3903
21.4528,499,1.6097
21.4571,538,1.7355
21.4613,495,1.5968
21.4656,424,1.3677
21.4698,440,1.4194
21.4740,515,1.6613
21.4783,532,1.7161
21.4825,470,1.5161
21.4867,419,1.3516
21.4909,457,1.4742
21.4952,527,1.7000
21.4994,521,1.6806
21.5036,451,1.4548
21.5078,420,1.3548
21.5120,479,1.5452
21.5163,532,1.7161
21.5205,504,1.6258
21.5248,433,1.3968
21.5290,429,1.3839
21.5332,501,1.6161
21.5374,536,1.7290
21.5416,487,1.5710
21.5458,425,1.3710
21.5501,447,1.4419
21.5543,521,1.6806
21.5586,534,1.7226
21.5629,466,1.5032
21.5672,423,1.3645
21.5715,474,1.5290
21.5758,539,1.7387
21.5800,523,1.6871
21.5842,453,1.4613
21.5884,440,1.4194
21.5926,514,1.6581
21.5969,566,1.8258
21.6012,530,1.7097
21.6054,468,1.5097
21.6096,489,1.5774
21.6138,577,1.8613
21.6181,615,1.9839
21.6223,559,1.8032
21.6266,497,1.6032
21.6309,527,1.7000
21.6351,585,1.8871
21.6394,568,1.8323
21.6437,490,1.5806
21.6480,455,1.4677
21.6522,510,1.6452
21.6564,555,1.7903
21.6607,518,1.6710
21.6649,441,1.4226
21.6691,434,1.4000
21.6733,504,1.6258
21.6775,537,1.7323
21.6818,486,1.5677
21.6861,424,1.3677
21.6904,451,1.4548
21.6947,524,1.6903
21.6990,526,1.6968
21.7034,455,1.4677
21.7077,423,1.3645
21.7121,485,1.5645
21.7164,536,1.7290
21.7207,495,1.5968
21.7251,399,1.2871
21.7293,387,1.2484
21.7336,473,1.5258
21.7379,551,1.7774
21.7422,594,1.9161
21.7464,681,2.1968
21.7507,858,2.7677
21.7550,1000,3.2258
21.7593,1001,3.2290
21.7635,1002,3.2323
21.7678,924,2.9806
21.7721,747,2.4097
21.7764,610,1.9677
21.7807,478,1.5419
21.7850,375,1.2097
21.7892,377,1.2161
21.7934,465,1.5000
21.7976,509,1.6419
21.8054,404,1.3032
21.8097,416,1.3419
21.8140,493,1.5903
21.8182,513,1.6548
21.8224,455,1.4677
21.8267,404,1.3032
21.8309,444,1.4323
21.8352,517,1.6677
21.8394,514,1.6581
21.8436,442,1.4258
21.8479,413,1.3323
21.8521,477,1.5387
21.8563,535,1.7258
21.8605,512,1.6516
21.8647,441,1.4226
21.8690,437,1.4097
21.8732,513,1.6548
21.8774,551,1.7774
21.8817,507,1.6355
21.8860,446,1.4387
21.8902,472,1.5226
21.8944,549,1.7710
21.8986,567,1.8290
21.9028,507,1.6355
21.9070,462,1.4903
21.9113,512,1.6516
21.9156,581,1.8742
21.9199,572,1.8452
21.9243,504,1.6258
21.9286,495,1.5968
21.9330,576,1.8581
21.9373,621,2.0032
21.9416,581,1.8742
21.9459,520,1.6774
21.9501,546,1.7613
21.9544,627,2.0226
21.9587,643,2.0742
21.9630,585,1.8871
21.9672,544,1.7548
21.9714,597,1.9258
21.9757,669,2.1581
21.9799,657,2.1194
21.9841,585,1.8871
21.9884,566,1.8258
21.9926,632,2.0387
21.9969,681,2.1968
22.0011,640,2.0645
22.0053,561,1.8097
22.0095,556,1.7935
22.0138,618,1.9935
22.0181,624,2.0129
22.0224,550,1.7742
22.0268,478,1.5419
22.0311,503,1.6226
22.0355,559,1.8032
22.0398,537,1.7323
22.0440,450,1.4516
22.0483,417,1.3452
22.0526,476,1.5355
22.0569,517,1.6677
22.0611,473,1.5258
22.0654,399,1.2871
22.0697,407,1.3129
22.0740,480,1.5484
22.0782,503,1.6226
22.0824,442,1.4258
22.0867,387,1.2484
22.0909,424,1.3677
22.0951,499,1.6097
22.0994,501,1.6161
22.1036,432,1.3935
22.1078,399,1.2871
22.1120,459,1.4806
22.1162,515,1.6613
22.1205,493,1.5903
22.1247,419,1.3516
22.1289,411,1.3258
22.1332,487,1.5710
22.1374,527,1.7000
22.1416,481,1.5516
22.1459,415,1.3387
22.1501,435,1.4032
22.1545,513,1.6548
22.1588,523,1.6871
22.1631,454,1.4645
22.1675,414,1.3355
22.1717,476,1.5355
22.1766,536,1.7290
22.1809,504,1.6258
22.1852,430,1.3871
22.1894,433,1.3968
22.1937,507,1.6355
22.1980,534,1.7226
22.2023,475,1.5323
22.2066,416,1.3419
22.2108,451,1.4548
22.2152,524,1.6903
22.2194,522,1.6839
22.2238,447,1.4419
22.2281,419,1.3516
22.2323,482,1.5548
22.2366,535,1.7258
22.2409,501,1.6161
22.2452,428,1.3806
22.2495,434,1.4000
22.2538,509,1.6419
22.2580,535,1.7258
22.2623,477,1.5387
22.2665,422,1.3613
22.2708,456,1.4710
22.2751,528,1.7032
22.2793,531,1.7129
22.2836,459,1.4806
22.2878,425,1.3710
22.2921,484,1.5613
22.2964,542,1.7484
22.3007,516,1.6645
22.3050,448,1.4452
22.3092,451,1.4548
22.3135,534,1.7226
22.3177,575,1.8548
22.3220,527,1.7000
22.3263,469,1.5129
22.3305,507,1.6355
22.3348,597,1.9258
22.3391,616,1.9871
22.3433,543,1.7516
22.3476,495,1.5968
22.3520,540,1.7419
22.3562,585,1.8871
22.3605,554,1.7871
22.3647,473,1.5258
22.3689,454,1.4645
22.3731,519,1.6742
22.3774,553,1.7839
22.3817,502,1.6194
22.3859,432,1.3935
22.3901,447,1.4419
22.3943,522,1.6839
22.3986,536,1.7290
22.4028,474,1.5290
22.4070,422,1.3613
22.4112,465,1.5000
22.4154,535,1.7258
22.4197,530,1.7097
22.4239,455,1.4677
22.4281,426,1.3742
22.4324,488,1.5742
22.4367,537,1.7323
22.4410,487,1.5710
22.4453,394,1.2710
22.4496,392,1.2645
22.4538,493,1.5903
22.4583,596,1.9226
22.4632,668,2.1548
22.4675,764,2.4645
22.4719,960,3.0968
22.4762,1003,3.2355
22.4804,1002,3.2323
22.4847,974,3.1419
22.4890,783,2.5258
22.4934,648,2.0903
22.4977,549,1.7710
22.5020,434,1.4000
22.5063,359,1.1581
22.5106,400,1.2903
22.5149,490,1.5806
22.5191,507,1.6355
22.5234,440,1.4194
22.5276,401,1.2935
22.5319,454,1.4645
22.5362,515,1.6613
22.5405,493,1.5903
22.5448,420,1.3548
22.5490,412,1.3290
22.5534,489,1.5774
22.5577,526,1.6968
22.5619,478,1.5419
22.5662,417,1.3452
22.5704,443,1.4290
22.5746,520,1.6774
22.5788,535,1.7258
22.5831,471,1.5194
22.5873,429,1.3839
22.5915,479,1.5452
22.5957,549,1.7710
22.5999,541,1.7452
22.6042,471,1.5194
22.6084,452,1.4581
22.6127,522,1.6839
22.6170,572,1.8452
22.6213,537,1.7323
22.6256,470,1.5161
22.6300,489,1.5774
22.6344,568,1.8323
22.6387,590,1.9032
22.6432,526,1.6968
22.6476,488,1.5742
22.6521,551,1.7774
22.6565,616,1.9871
22.6609,593,1.9129
22.6653,524,1.6903
22.6697,539,1.7387
22.6742,623,2.0097
22.6786,647,2.0871
22.6831,582,1.8774
22.6875,542,1.7484
22.6920,604,1.9484
22.6965,666,2.1484
22.7009,639,2.0613
22.7054,565,1.8226
22.7099,574,1.8516
22.7142,653,2.1065
22.7186,665,2.1452
22.7231,589,1.9000
22.7275,532,1.7161
22.7318,568,1.8323
22.7362,617,1.9903
22.7405,578,1.8645
22.7449,486,1.5677
22.7493,464,1.4968
22.7537,527,1.7000
22.7581,545,1.7581
22.7624,476,1.5355
22.7669,411,1.3258
22.7712,444,1.4323
22.7756,509,1.6419
22.7800,496,1.6000
22.7843,416,1.3419
22.7887,392,1.2645
22.7931,463,1.4935
22.7975,504,1.6258
22.8019,456,1.4710
22.8062,392,1.2645
22.8106,419,1.3516
22.8150,495,1.5968
22.8194,500,1.6129
22.8238,428,1.3806
22.8282,400,1.2903
22.8325,466,1.5032
22.8368,521,1.6806
22.8412,486,1.5677
22.8455,414,1.3355
22.8499,422,1.3613
22.8543,502,1.6194
22.8586,523,1.6871
22.8631,455,1.4677
22.8674,409,1.3194
22.8718,461,1.4871
22.8762,526,1.6968
22.8805,507,1.6355
22.8849,434,1.4000
22.8892,428,1.3806
22.8936,502,1.6194
22.8980,536,1.7290
22.9024,480,1.5484
22.9067,421,1.3581
22.9111,457,1.4742
22.9155,530,1.7097
22.9199,524,1.6903
22.9243,448,1.4452
22.9286,427,1.3774
22.9329,497,1.6032
22.9373,540,1.7419
22.9417,492,1.5871
22.9461,424,1.3677
22.9505,447,1.4419
22.9549,523,1.6871
22.9592,528,1.7032
22.9636,459,1.4806
22.9680,423,1.3645
22.9724,485,1.5645
22.9768,540,1.7419
22.9811,509,1.6419
22.9855,435,1.4032
22.9898,443,1.4290
22.9942,517,1.6677
22.9986,539,1.7387
23.0031,474,1.5290
23.0075,427,1.3774
23.0119,483,1.5581
23.0163,553,1.7839
23.0207,536,1.7290
23.0251,467,1.5065
23.0295,471,1.5194
23.0339,555,1.7903
23.0384,589,1.9000
23.0428,541,1.7452
23.0472,503,1.6226
23.0515,547,1.7645
23.0559,606,1.9548
23.0603,582,1.8774
23.0647,490,1.5806
23.0691,468,1.5097
23.0735,537,1.7323
23.0778,564,1.8194
23.0822,506,1.6323
23.0866,437,1.4097
23.0909,461,1.4871
23.0953,529,1.7065
23.0997,525,1.6935
23.1040,450,1.4516
23.1084,424,1.3677
23.1128,490,1.5806
23.1172,536,1.7290
23.1216,495,1.5968
23.1260,425,1.3710
23.1304,445,1.4355
23.1348,521,1.6806
23.1391,531,1.7129
23.1435,459,1.4806
23.1479,414,1.3355
23.1523,454,1.4645
23.1567,493,1.5903
23.1611,468,1.5097
23.1654,441,1.4226
23.1702,563,1.8161
23.1746,778,2.5097
23.1790,920,2.9677
23.1834,990,3.1935
23.1878,1002,3.2323
23.1921,997,3.2161
23.1965,938,3.0258
23.2008,731,2.3581
23.2052,504,1.6258
23.2096,411,1.3258
23.2140,450,1.4516
23.2183,476,1.5355
23.2227,431,1.3903
23.2270,390,1.2581
23.2314,442,1.4258
23.2358,513,1.6548
23.2403,498,1.6065
23.2446,423,1.3645
23.2490,411,1.3258
23.2534,487,1.5710
23.2578,526,1.6968
23.2622,477,1.5387
23.2665,416,1.3419
23.2709,449,1.4484
23.2753,526,1.6968
23.2797,527,1.7000
23.2841,455,1.4677
23.2885,432,1.3935
23.2929,502,1.6194
23.2973,554,1.7871
23.3017,514,1.6581
23.3061,447,1.4419
23.3105,470,1.5161
23.3149,549,1.7710
23.3192,561,1.8097
23.3236,495,1.5968
23.3279,460,1.4839
23.3323,524,1.6903
23.3367,588,1.8968
23.3410,564,1.8194
23.3453,495,1.5968
23.3496,500,1.6129
23.3540,580,1.8710
23.3587,610,1.9677
23.3639,539,1.7387
23.3683,510,1.6452
23.3726,578,1.8645
23.3770,636,2.0516
23.3813,608,1.9613
23.3856,542,1.7484
23.3900,553,1.7839
23.3943,638,2.0581
23.3987,665,2.1452
23.4030,605,1.9516
23.4074,557,1.7968
23.4117,607,1.9581
23.4161,674,2.1742
23.4204,659,2.1258
23.4248,583,1.8806
23.4291,565,1.8226
23.4335,630,2.0323
23.4378,658,2.1226
23.4422,590,1.9032
23.4466,512,1.6516
23.4509,524,1.6903
23.4553,585,1.8871
23.4596,573,1.8484
23.4639,489,1.5774
23.4682,445,1.4355
23.4726,498,1.6065
23.4769,544,1.7548
23.4813,502,1.6194
23.4856,425,1.3710
23.4899,427,1.3774
23.4943,500,1.6129
23.4986,519,1.6742
23.5030,455,1.4677
23.5074,404,1.3032
23.5117,449,1.4484
23.5161,517,1.6677
23.5204,503,1.6226
23.5247,426,1.3742
23.5291,414,1.3355
23.5335,488,1.5742
23.5378,527,1.7000
23.5422,477,1.5387
23.5465,416,1.3419
23.5508,444,1.4323
23.5552,520,1.6774
23.5595,527,1.7000
23.5639,456,1.4710
23.5682,422,1.3613
23.5725,483,1.5581
23.5769,538,1.7355
23.5815,503,1.6226
23.5858,431,1.3903
23.5901,441,1.4226
23.5945,516,1.6645
23.5988,535,1.7258
23.6032,471,1.5194
23.6075,423,1.3645
23.6118,471,1.5194
23.6162,537,1.7323
23.6205,520,1.6774
23.6247,443,1.4290
23.6290,426,1.3742
23.6333,495,1.5968
23.6375,539,1.7387
23.6417,496,1.6000
23.6460,427,1.3774
23.6503,440,1.4194
23.6546,517,1.6677
23.6588,533,1.7194
23.6630,472,1.5226
23.6672,421,1.3581
23.6714,458,1.4774
23.6757,529,1.7065
23.6799,526,1.6968
23.6841,454,1.4645
23.6883,422,1.3613
23.6925,481,1.5516
23.6968,537,1.7323
23.7010,514,1.6581
23.7052,440,1.4194
23.7094,433,1.3968
23.7136,504,1.6258
23.7179,543,1.7516
23.7222,498,1.6065
23.7265,441,1.4226
23.7308,473,1.5258
23.7351,555,1.7903
23.7394,567,1.8290
23.7437,504,1.6258
23.7480,478,1.5419
23.7523,550,1.7742
23.7566,616,1.9871
23.7609,592,1.9097
23.7653,508,1.6387
23.7695,492,1.5871
23.7738,552,1.7806
23.7782,579,1.8677
23.7825,521,1.6806
23.7868,450,1.4516
23.7911,473,1.5258
23.7954,538,1.7355
23.7997,531,1.7129
23.8040,455,1.4677
23.8083,417,1.3452
23.8125,475,1.5323
23.8167,532,1.7161
23.8210,507,1.6355
23.8253,432,1.3935
23.8295,427,1.3774
23.8337,500,1.6129
23.8379,536,1.7290
23.8421,489,1.5774
23.8464,422,1.3613
23.8506,439,1.4161
23.8548,509,1.6419
23.8590,508,1.6387
23.8633,423,1.3645
23.8677,367,1.1839
23.8720,436,1.4065
23.8763,573,1.8484
23.8806,690,2.2258
23.8849,782,2.5226
23.8891,929,2.9968
23.8934,1002,3.2323
23.8976,1005,3.2419
23.9019,1003,3.2355
23.9063,938,3.0258
23.9106,698,2.2516
23.9149,563,1.8161
23.9192,485,1.5645
23.9234,402,1.2968
23.9277,368,1.1871
23.9320,431,1.3903
23.9362,505,1.6290
23.9405,491,1.5839
23.9447,414,1.3355
23.9489,393,1.2677
23.9531,460,1.4839
23.9573,510,1.6452
23.9637,433,1.3968
23.9681,396,1.2774
23.9723,454,1.4645
23.9766,517,1.6677
23.9812,490,1.5806
23.9855,420,1.3548
23.9897,422,1.3613
23.9939,498,1.6065
23.9982,537,1.7323
24.0025,488,1.5742
24.0068,427,1.3774
24.0111,461,1.4871
24.0154,537,1.7323
24.0196,544,1.7548
24.0239,476,1.5355
24.0282,444,1.4323
24.0326,509,1.6419
24.0369,569,1.8355
24.0411,549,1.7710
24.0454,478,1.5419
24.0497,480,1.5484
24.0540,560,1.8065
24.0583,597,1.9258
24.0626,551,1.7774
24.0668,494,1.5935
24.0710,528,1.7032
24.0753,608,1.9613
24.0795,622,2.0065
24.0837,560,1.8065
24.0879,527,1.7000
24.0921,581,1.8742
24.0963,651,2.1000
24.1006,643,2.0742
24.1048,574,1.8516
24.1090,560,1.8065
24.1132,633,2.0419
24.1175,678,2.1871
24.1217,644,2.0774
24.1260,572,1.8452
24.1303,582,1.8774
24.1346,654,2.1097
24.1389,668,2.1548
24.1432,594,1.9161
24.1475,533,1.7194
24.1518,565,1.8226
24.1561,617,1.9903
24.1604,586,1.8903
24.1647,496,1.6000
24.1690,463,1.4935
24.1732,519,1.6742
24.1775,552,1.7806
24.1818,501,1.6161
24.1861,422,1.3613
24.1903,425,1.3710
24.1946,492,1.5871
24.1988,511,1.6484
24.2031,446,1.4387
24.2073,389,1.2548
24.2115,427,1.3774
24.2157,496,1.6000
24.2199,494,1.5935
24.2242,425,1.3710
24.2285,392,1.2645
24.2327,452,1.4581
24.2369,510,1.6452
24.2411,487,1.5710
24.2453,414,1.3355
24.2496,408,1.3161
24.2538,481,1.5516
24.2580,520,1.6774
24.2642,439,1.4161
24.2685,407,1.3129
24.2729,473,1.5258
24.2773,527,1.7000
24.2816,493,1.5903
24.2859,422,1.3613
24.2906,444,1.4323
24.2950,515,1.6613
24.2992,529,1.7065
24.3035,464,1.4968
24.3077,417,1.3452
24.3120,462,1.4903
24.3162,530,1.7097
24.3205,516,1.6645
24.3248,441,1.4226
24.3291,423,1.3645
24.3334,492,1.5871
24.3376,538,1.7355
24.3418,499,1.6097
24.3460,427,1.3774
24.3503,436,1.4065
24.3545,512,1.6516
24.3587,534,1.7226
24.3629,478,1.5419
24.3671,421,1.3581
24.3714,456,1.4710
24.3756,527,1.7000
24.3798,528,1.7032
24.3840,459,1.4806
24.3882,424,1.3677
24.3925,482,1.5548
24.3968,541,1.7452
24.4011,517,1.6677
24.4054,443,1.4290
24.4097,439,1.4161
24.4141,514,1.6581
24.4184,544,1.7548
24.4227,488,1.5742
24.4270,428,1.3806
24.4313,461,1.4871
24.4356,536,1.7290
24.4399,540,1.7419
24.4442,476,1.5355
24.4485,450,1.4516
24.4528,520,1.6774
24.4572,580,1.8710
24.4615,553,1.7839
24.4658,491,1.5839
24.4701,508,1.6387
24.4744,596,1.9226
24.4787,619,1.9968
24.4831,552,1.7806
24.4874,488,1.5742
24.4917,515,1.6613
24.4960,573,1.8484
24.5003,561,1.8097
24.5046,479,1.5452
24.5089,446,1.4387
24.5133,507,1.6355
24.5176,546,1.7613
24.5220,498,1.6065
24.5263,425,1.3710
24.5306,443,1.4290
24.5349,520,1.6774
24.5394,534,1.7226
24.5438,466,1.5032
24.5481,422,1.3613
24.5524,475,1.5323
24.5568,537,1.7323
24.5611,514,1.6581
24.5654,439,1.4161
24.5697,430,1.3871
24.5739,497,1.6032
24.5782,518,1.6710
24.5825,448,1.4452
24.5867,378,1.2194
24.5909,427,1.3774
24.5952,583,1.8806
24.5995,727,2.3452
24.6038,823,2.6548
24.6080,938,3.0258
24.6123,1001,3.2290
24.6165,1004,3.2387
24.6208,1002,3.2323
24.6250,898,2.8968
24.6292,644,2.0774
24.6334,529,1.7065
24.6377,497,1.6032
24.6419,443,1.4290
24.6461,381,1.2290
24.6503,404,1.3032
24.6546,489,1.5774
24.6588,515,1.6613
24.6631,455,1.4677
24.6673,398,1.2839
24.6715,434,1.4000
24.6758,508,1.6387
24.6801,508,1.6387
24.6844,437,1.4097
24.6887,410,1.3226
24.6932,478,1.5419
24.6975,532,1.7161
24.7018,497,1.6032
24.7061,428,1.3806
24.7103,438,1.4129
24.7145,515,1.6613
24.7188,542,1.7484
24.7231,490,1.5806
24.7273,437,1.4097
24.7316,475,1.5323
24.7359,549,1.7710
24.7401,551,1.7774
24.7444,483,1.5581
24.7487,456,1.4710
24.7529,523,1.6871
24.7571,580,1.8710
24.7614,556,1.7935
24.7656,489,1.5774
24.7698,489,1.5774
24.7740,565,1.8226
24.7782,607,1.9581
24.7825,565,1.8226
24.7867,508,1.6387
24.7909,533,1.7194
24.7951,612,1.9742
24.7993,633,2.0419
24.8036,575,1.8548
24.8079,533,1.7194
24.8122,588,1.8968
24.8166,662,2.1355
24.8209,650,2.0968
24.8252,578,1.8645
24.8295,567,1.8290
24.8338,643,2.0742
24.8381,687,2.2161
24.8425,640,2.0645
24.8467,574,1.8516
24.8510,597,1.9258
24.8553,669,2.1581
24.8595,671,2.1645
24.8641,586,1.8903
24.8685,532,1.7161
24.8727,575,1.8548
24.8770,618,1.9935
24.8813,573,1.8484
24.8857,484,1.5613
24.8899,468,1.5097
24.8942,528,1.7032
24.8985,550,1.7742
24.9027,488,1.5742
24.9070,417,1.3452
24.9113,440,1.4194
24.9156,512,1.6516
24.9198,514,1.6581
24.9241,443,1.4290
24.9283,400,1.2903
24.9325,452,1.4581
24.9367,512,1.6516
24.9409,492,1.5871
24.9452,419,1.3516
24.9494,407,1.3129
24.9536,476,1.5355
24.9580,521,1.6806
24.9623,478,1.5419
24.9666,411,1.3258
24.9709,429,1.3839
24.9752,506,1.6323
24.9795,520,1.6774
24.9838,455,1.4677
24.9881,410,1.3226
24.9924,461,1.4871
24.9966,524,1.6903
25.0009,508,1.6387
25.0051,433,1.3968
25.0094,417,1.3452
25.0137,488,1.5742
25.0181,530,1.7097
25.0224,483,1.5581
25.0268,418,1.3484
25.0344,505,1.6290
25.0388,535,1.7258
25.0431,477,1.5387
25.0474,421,1.3581
25.0516,455,1.4677
25.0559,526,1.6968
25.0601,525,1.6935
25.0643,456,1.4710
25.0685,418,1.3484
25.0727,474,1.5290
25.0769,533,1.7194
25.0811,512,1.6516
25.0853,437,1.4097
25.0895,426,1.3742
25.0938,496,1.6000
25.0980,536,1.7290
25.1022,492,1.5871
25.1065,424,1.3677
25.1108,441,1.4226
25.1152,517,1.6677
25.1195,531,1.7129
25.1238,464,1.4968
25.1280,420,1.3548
25.1323,470,1.5161
25.1365,535,1.7258
25.1408,522,1.6839
25.1451,447,1.4419
25.1494,431,1.3903
25.1537,500,1.6129
25.1581,543,1.7516
25.1643,461,1.4871
25.1687,427,1.3774
25.1730,491,1.5839
25.1773,546,1.7613
25.1815,516,1.6645
25.1857,442,1.4258
25.1899,441,1.4226
25.1942,514,1.6581
25.1984,550,1.7742
25.2026,503,1.6226
25.2068,439,1.4161
25.2111,462,1.4903
25.2153,543,1.7516
25.2196,558,1.8000
25.2239,500,1.6129
25.2281,462,1.4903
25.2323,515,1.6613
25.2366,587,1.8935
25.2409,585,1.8871
25.2452,526,1.6968
25.2495,516,1.6645
25.2538,581,1.8742
25.2581,617,1.9903
25.2623,562,1.8129
25.2666,484,1.5613
25.2709,493,1.5903
25.2752,563,1.8161
25.2795,569,1.8355
25.2838,493,1.5903
25.2881,440,1.4194
25.2924,483,1.5581
25.2967,545,1.7581
25.3009,529,1.7065
25.3052,453,1.4613
25.3094,436,1.4065
25.3136,504,1.6258
25.3178,550,1.7742
25.3222,509,1.6419
25.3264,438,1.4129
25.3307,450,1.4516
25.3349,523,1.6871
25.3391,542,1.7484
25.3436,476,1.5355
25.3479,419,1.3516
25.3521,445,1.4355
25.3563,496,1.6000
25.3606,490,1.5806
25.3649,451,1.4548
25.3692,511,1.6484
25.3735,707,2.2806
25.3778,893,2.8806
25.3821,990,3.1935
25.3864,1000,3.2258
25.3906,1000,3.2258
25.3949,987,3.1839
25.3993,829,2.6742
25.4036,588,1.8968
25.4078,418,1.3484
25.4121,414,1.3355
25.4164,477,1.5387
25.4207,478,1.5419
25.4250,417,1.3452
25.4293,405,1.3065
25.4335,473,1.5258
25.4378,524,1.6903
25.4420,488,1.5742
25.4462,416,1.3419
25.4504,421,1.3581
25.4546,496,1.6000
25.4588,525,1.6935
25.4631,471,1.5194
25.4673,416,1.3419
25.4715,449,1.4484
25.4757,527,1.7000
25.4799,533,1.7194
25.4842,466,1.5032
25.4884,429,1.3839
25.4927,486,1.5677
25.4970,550,1.7742
25.5014,530,1.7097
25.5057,457,1.4742
25.5100,454,1.4645
25.5143,531,1.7129
25.5187,567,1.8290
25.5231,515,1.6613
25.5274,456,1.4710
25.5318,497,1.6032
25.5361,573,1.8484
25.5403,578,1.8645
25.5446,511,1.6484
25.5488,482,1.5548
25.5531,548,1.7677
25.5574,610,1.9677
25.5617,586,1.8903
25.5660,519,1.6742
25.5703,525,1.6935
25.5745,606,1.9548
25.5787,640,2.0645
25.5829,592,1.9097
25.5871,535,1.7258
25.5914,568,1.8323
25.5956,650,2.0968
25.5998,664,2.1419
25.6040,601,1.9387
25.6082,558,1.8000
25.6125,609,1.9645
25.6167,674,2.1742
25.6209,661,2.1323
25.6252,588,1.8968
25.6294,563,1.8161
25.6337,623,2.0097
25.6381,657,2.1194
25.6424,599,1.9323
25.6467,514,1.6581
25.6510,516,1.6645
25.6553,576,1.8581
25.6596,577,1.8613
25.6640,497,1.6032
25.6683,439,1.4161
25.6726,481,1.5516
25.6769,532,1.7161
25.6812,507,1.6355
25.6854,426,1.3742
25.6897,407,1.3129
25.6939,474,1.5290
25.6982,515,1.6613
25.7024,469,1.5129
25.7067,399,1.2871
25.7110,418,1.3484
25.7153,496,1.6000
25.7195,514,1.6581
25.7238,450,1.4516
25.7280,402,1.2968
25.7322,446,1.4387
25.7364,514,1.6581
25.7407,510,1.6452
25.7449,438,1.4129
25.7491,411,1.3258
25.7533,475,1.5323
25.7575,529,1.7065
25.7619,452,1.4581
25.7687,415,1.3387
25.7730,474,1.5290
25.7773,534,1.7226
25.7816,507,1.6355
25.7859,434,1.4000
25.7902,432,1.3935
25.7945,507,1.6355
25.7988,540,1.7419
25.8031,485,1.5645
25.8075,426,1.3742
25.8118,459,1.4806
25.8161,533,1.7194
25.8204,532,1.7161
25.8251,449,1.4484
25.8294,426,1.3742
25.8336,493,1.5903
25.8378,541,1.7452
25.8422,502,1.6194
25.8465,429,1.3839
25.8508,441,1.4226
25.8551,518,1.6710
25.8594,537,1.7323
25.8637,473,1.5258
25.8679,421,1.3581
25.8721,462,1.4903
25.8765,532,1.7161
25.8808,522,1.6839
25.8851,447,1.4419
25.8894,424,1.3677
25.8937,492,1.5871
25.8980,542,1.7484
25.9023,502,1.6194
25.9067,432,1.3935
25.9110,446,1.4387
25.9153,521,1.6806
25.9196,538,1.7355
25.9239,473,1.5258
25.9282,426,1.3742
25.9326,475,1.5323
25.9369,538,1.7355
25.9412,522,1.6839
25.9455,446,1.4387
25.9498,434,1.4000
25.9541,506,1.6323
25.9584,548,1.7677
25.9627,502,1.6194
25.9670,435,1.4032
25.9713,454,1.4645
25.9756,528,1.7032
25.9799,538,1.7355
25.9843,471,1.5194
25.9886,433,1.3968
25.9930,495,1.5968
25.9974,557,1.7968
26.0016,538,1.7355
26.0059,469,1.5129
26.0103,470,1.5161
26.0146,553,1.7839
26.0189,596,1.9226
26.0232,556,1.7935
26.0275,503,1.6226
26.0318,530,1.7097
26.0361,596,1.9226
26.0404,587,1.8935
26.0448,501,1.6161
26.0491,463,1.4935
26.0534,520,1.6774
26.0577,563,1.8161
26.0620,521,1.6806
26.0667,436,1.4065
26.0710,444,1.4323
26.0753,516,1.6645
26.0796,531,1.7129
26.0839,467,1.5065
26.0883,421,1.3581
26.0926,470,1.5161
26.0969,537,1.7323
26.1012,518,1.6710
26.1055,444,1.4323
26.1099,431,1.3903
26.1142,503,1.6226
26.1185,539,1.7387
26.1228,486,1.5677
26.1271,414,1.3355
26.1314,418,1.3484
26.1357,480,1.5484
26.1400,497,1.6032
26.1443,481,1.5516
26.1486,538,1.7355
26.1530,735,2.3710
26.1574,925,2.9839
26.1617,999,3.2226
26.1660,1000,3.2258
26.1703,996,3.2129
26.1746,942,3.0387
26.1789,779,2.5129
26.1832,569,1.8355
26.1875,412,1.3290
26.1919,403,1.3000
26.1962,474,1.5290
26.2005,485,1.5645
26.2048,425,1.3710
26.2091,402,1.2968
26.2134,466,1.5032
26.2177,522,1.6839
26.2220,491,1.5839
26.2263,419,1.3516
26.2306,423,1.3645
26.2349,501,1.6161
26.2392,529,1.7065
26.2435,471,1.5194
26.2478,417,1.3452
26.2522,462,1.4903
26.2565,536,1.7290
26.2608,531,1.7129
26.2651,459,1.4806
26.2694,440,1.4194
26.2738,510,1.6452
26.2781,561,1.8097
26.2824,522,1.6839
26.2867,455,1.4677
26.2910,470,1.5161
26.2953,551,1.7774
26.2996,572,1.8452
26.3039,511,1.6484
26.3083,466,1.5032
26.3126,518,1.6710
26.3169,587,1.8935
26.3212,576,1.8581
26.3256,505,1.6290
26.3299,494,1.5935
26.3342,571,1.8419
26.3385,617,1.9903
26.3428,575,1.8548
26.3471,513,1.6548
26.3514,541,1.7452
26.3557,625,2.0161
26.3601,638,2.0581
26.3644,575,1.8548
26.3687,539,1.7387
26.3730,597,1.9258
26.3773,663,2.1387
26.3816,642,2.0710
26.3859,570,1.8387
26.3902,564,1.8194
26.3945,640,2.0645
26.3988,672,2.1677
26.4031,619,1.9968
26.4074,554,1.7871
26.4117,575,1.8548
26.4160,638,2.0581
26.4203,627,2.0226
26.4247,540,1.7419
26.4290,489,1.5774
26.4333,535,1.7258
26.4376,580,1.8710
26.4419,539,1.7387
26.4462,452,1.4581
26.4505,441,1.4226
