time_s,adc_raw,voltage
0.0000,649,2.0935
0.0044,510,1.6452
0.0087,337,1.0871
0.0289,348,1.1226
0.0334,460,1.4839
0.0380,651,2.1000
0.0424,621,2.0032
0.0468,405,1.3065
0.0513,358,1.1548
0.0557,554,1.7871
0.0601,662,2.1355
0.0645,515,1.6613
0.0689,336,1.0839
0.0734,432,1.3935
0.0778,623,2.0097
0.0822,607,1.9581
0.0866,387,1.2484
0.0910,322,1.0387
0.0954,510,1.6452
0.0999,628,2.0258
0.1043,489,1.5774
0.1087,307,0.9903
0.1132,391,1.2613
0.1176,587,1.8935
0.1220,588,1.8968
0.1264,383,1.2355
0.1308,313,1.0097
0.1353,502,1.6194
0.1396,631,2.0355
0.1440,505,1.6290
0.1484,316,1.0194
0.1527,377,1.2161
0.1571,579,1.8677
0.1614,612,1.9742
0.1658,414,1.3355
0.1705,312,1.0065
0.1750,493,1.5903
0.1796,633,2.0419
0.1845,485,1.5645
0.1889,318,1.0258
0.1933,412,1.3290
0.1977,604,1.9484
0.2020,604,1.9484
0.2064,403,1.3000
0.2108,331,1.0677
0.2291,324,1.0452
0.2338,449,1.4484
0.2391,642,2.0710
0.2439,524,1.6903
0.2487,329,1.0613
0.2536,441,1.4226
0.2583,628,2.0258
0.2626,587,1.8935
0.2670,381,1.2290
0.2713,355,1.1452
0.2757,553,1.7839
0.2800,660,2.1290
0.2843,522,1.6839
0.2887,346,1.1161
0.2931,425,1.3710
0.2974,615,1.9839
0.3017,628,2.0258
0.3060,431,1.3903
0.3104,337,1.0871
0.3147,501,1.6161
0.3190,649,2.0935
0.3233,564,1.8194
0.3277,365,1.1774
0.3320,378,1.2194
0.3363,577,1.8613
0.3407,648,2.0903
0.3450,479,1.5452
0.3493,333,1.0742
0.3537,448,1.4452
0.3580,628,2.0258
0.3623,598,1.9290
0.3667,379,1.2226
0.3710,314,1.0129
0.3754,494,1.5935
0.3797,615,1.9839
0.3840,491,1.5839
0.3883,305,0.9839
0.3927,364,1.1742
0.3970,565,1.8226
0.4014,598,1.9290
0.4057,408,1.3161
0.4100,290,0.9355
0.4143,440,1.4194
0.4187,603,1.9452
0.4231,544,1.7548
0.4274,354,1.1419
0.4317,344,1.1097
0.4360,538,1.7355
0.4404,625,2.0161
0.4447,468,1.5097
0.4490,305,0.9839
0.4533,400,1.2903
0.4577,591,1.9065
0.4620,588,1.8968
0.4663,388,1.2516
0.4707,308,0.9935
0.4750,485,1.5645
0.4793,623,2.0097
0.4836,518,1.6710
0.4880,322,1.0387
0.4923,349,1.1258
0.4966,557,1.7968
0.5010,620,2.0000
0.5053,445,1.4355
0.5096,314,1.0129
0.5140,449,1.4484
0.5183,627,2.0226
0.5226,593,1.9129
0.5269,409,1.3194
0.5312,393,1.2677
0.5356,619,1.9968
0.5399,788,2.5419
0.5442,727,2.3452
0.5485,627,2.0226
0.5529,744,2.4000
0.5572,919,2.9645
0.5615,775,2.5000
0.5659,391,1.2613
0.5702,214,0.6903
0.5745,386,1.2452
0.5789,573,1.8484
0.5832,517,1.6677
0.5876,332,1.0710
0.5919,344,1.1097
0.5962,545,1.7581
0.6005,626,2.0194
0.6049,460,1.4839
0.6092,308,0.9935
0.6135,418,1.3484
0.6178,605,1.9516
0.6221,591,1.9065
0.6265,386,1.2452
0.6308,321,1.0355
0.6352,509,1.6419
0.6395,642,2.0710
0.6438,527,1.7000
0.6482,336,1.0839
0.6525,383,1.2355
0.6568,588,1.8968
0.6612,639,2.0613
0.6655,451,1.4548
0.6698,325,1.0484
0.6742,472,1.5226
0.6786,644,2.0774
0.6829,584,1.8839
0.6872,376,1.2129
0.6916,363,1.1710
0.6959,568,1.8323
0.7002,671,2.1645
0.7046,515,1.6613
0.7089,344,1.1097
0.7133,440,1.4194
0.7176,634,2.0452
0.7219,639,2.0613
0.7263,433,1.3968
0.7306,353,1.1387
0.7350,536,1.7290
0.7393,679,2.1903
0.7436,578,1.8645
0.7480,384,1.2387
0.7523,422,1.3613
0.7567,632,2.0387
0.7610,691,2.2290
0.7654,507,1.6355
0.7697,375,1.2097
0.7740,520,1.6774
0.7783,699,2.2548
0.7826,654,2.1097
0.7870,442,1.4258
0.7913,408,1.3161
0.7956,607,1.9581
0.7999,721,2.3258
0.8043,583,1.8806
0.8086,402,1.2968
0.8130,482,1.5548
0.8173,680,2.1935
0.8217,691,2.2290
0.8260,484,1.5613
0.8303,379,1.2226
0.8347,542,1.7484
0.8390,688,2.2194
0.8433,592,1.9097
0.8476,379,1.2226
0.8519,382,1.2323
0.8563,590,1.9032
0.8606,668,2.1548
0.8649,495,1.5968
0.8692,338,1.0903
0.8735,455,1.4677
0.8778,647,2.0871
0.8822,630,2.0323
0.8865,419,1.3516
0.8908,352,1.1355
0.8951,543,1.7516
0.8994,678,2.1871
0.9038,557,1.7968
0.9081,360,1.1613
0.9124,403,1.3000
0.9168,614,1.9806
0.9211,671,2.1645
0.9254,485,1.5645
0.9297,351,1.1323
0.9341,496,1.6000
0.9384,675,2.1774
0.9427,621,2.0032
0.9471,412,1.3290
0.9514,387,1.2484
0.9558,589,1.9000
0.9601,694,2.2387
0.9645,540,1.7419
0.9688,364,1.1742
0.9732,462,1.4903
0.9775,664,2.1419
0.9818,669,2.1581
0.9862,461,1.4871
0.9905,372,1.2000
0.9948,553,1.7839
0.9991,708,2.2839
1.0034,610,1.9677
1.0077,401,1.2935
1.0121,421,1.3581
1.0164,636,2.0516
1.0207,710,2.2903
1.0250,533,1.7194
1.0294,378,1.2194
1.0337,502,1.6194
1.0380,689,2.2226
1.0424,656,2.1161
1.0468,443,1.4290
1.0511,394,1.2710
1.0555,593,1.9129
1.0598,717,2.3129
1.0641,585,1.8871
1.0684,395,1.2742
1.0728,464,1.4968
1.0771,672,2.1677
1.0815,702,2.2645
1.0858,500,1.6129
1.0901,385,1.2419
1.0944,548,1.7677
1.0988,714,2.3032
1.1032,638,2.0581
1.1075,428,1.3806
1.1118,432,1.3935
1.1162,648,2.0903
1.1205,732,2.3613
1.1248,557,1.7968
1.1292,395,1.2742
1.1335,510,1.6452
1.1379,706,2.2774
1.1422,687,2.2161
1.1465,473,1.5258
1.1509,408,1.3161
1.1552,601,1.9387
1.1595,732,2.3613
1.1639,609,1.9645
1.1682,412,1.3290
1.1726,462,1.4903
1.1769,671,2.1645
1.1812,713,2.3000
1.1856,518,1.6710
1.1899,392,1.2645
1.1942,547,1.7645
1.1985,726,2.3419
1.2028,674,2.1742
1.2072,453,1.4613
1.2115,429,1.3839
1.2159,636,2.0516
1.2202,735,2.3710
1.2245,576,1.8581
1.2289,397,1.2806
1.2332,496,1.6000
1.2375,699,2.2548
1.2419,698,2.2516
1.2462,485,1.5645
1.2506,395,1.2742
1.2549,581,1.8742
1.2592,729,2.3516
1.2636,627,2.0226
1.2679,423,1.3645
1.2723,456,1.4710
1.2766,667,2.1516
1.2809,721,2.3258
1.2852,538,1.7355
1.2896,397,1.2806
1.2940,541,1.7452
1.2983,734,2.3677
1.3027,705,2.2742
1.3070,512,1.6516
1.3113,509,1.6419
1.3156,766,2.4710
1.3200,957,3.0871
1.3243,893,2.8806
1.3287,753,2.4290
1.3331,799,2.5774
1.3374,835,2.6935
1.3417,677,2.1839
1.3461,412,1.3290
1.3504,329,1.0613
1.3547,528,1.7032
1.3590,703,2.2677
1.3634,623,2.0097
1.3677,425,1.3710
1.3721,446,1.4387
1.3764,660,2.1290
1.3808,729,2.3516
1.3851,547,1.7645
1.3894,393,1.2677
1.3937,524,1.6903
1.3980,719,2.3194
1.4024,691,2.2290
1.4068,469,1.5129
1.4111,415,1.3387
1.4154,617,1.9903
1.4198,744,2.4000
1.4241,612,1.9742
1.4284,424,1.3677
1.4328,492,1.5871
1.4371,704,2.2710
1.4414,735,2.3710
1.4458,527,1.7000
1.4501,407,1.3129
1.4543,563,1.8161
1.4586,735,2.3710
1.4628,677,2.1839
1.4670,467,1.5065
1.4713,433,1.3968
1.4755,631,2.0355
1.4798,752,2.4258
1.4840,617,1.9903
1.4883,421,1.3581
1.4925,469,1.5129
1.4968,679,2.1903
1.5011,736,2.3742
1.5053,552,1.7806
1.5096,412,1.3290
1.5138,546,1.7613
1.5181,735,2.3710
1.5223,711,2.2935
1.5265,504,1.6258
1.5307,436,1.4065
1.5350,624,2.0129
1.5393,774,2.4968
1.5435,674,2.1742
1.5478,468,1.5097
1.5520,483,1.5581
1.5563,691,2.2290
1.5605,777,2.5065
1.5648,606,1.9548
1.5690,441,1.4226
1.5733,544,1.7548
1.5775,749,2.4161
1.5818,760,2.4516
1.5861,552,1.7806
1.5903,448,1.4452
1.5946,615,1.9839
1.5988,776,2.5032
1.6033,688,2.2194
1.6077,464,1.4968
1.6121,475,1.5323
1.6166,689,2.2226
1.6209,748,2.4129
1.6253,553,1.7839
1.6296,405,1.3065
1.6340,541,1.7452
1.6383,723,2.3323
1.6427,667,2.1516
1.6471,446,1.4387
1.6515,421,1.3581
1.6560,636,2.0516
1.6603,732,2.3613
1.6648,556,1.7935
1.6692,391,1.2613
1.6736,515,1.6613
1.6780,714,2.3032
1.6824,689,2.2226
1.6868,473,1.5258
1.6912,426,1.3742
1.6955,627,2.0226
1.6999,739,2.3839
1.7043,590,1.9032
1.7087,405,1.3065
1.7132,500,1.6129
1.7175,711,2.2935
1.7219,716,2.3097
1.7262,500,1.6129
1.7305,404,1.3032
1.7348,583,1.8806
1.7392,738,2.3806
1.7436,631,2.0355
1.7481,421,1.3581
1.7526,472,1.5226
1.7570,689,2.2226
1.7615,720,2.3226
1.7660,509,1.6419
1.7703,406,1.3097
1.7747,582,1.8774
1.7791,739,2.3839
1.7834,650,2.0968
1.7877,438,1.4129
1.7920,445,1.4355
1.7963,658,2.1226
1.8006,734,2.3677
1.8049,550,1.7742
1.8092,384,1.2387
1.8135,499,1.6097
1.8178,699,2.2548
1.8222,687,2.2161
1.8265,464,1.4968
1.8308,384,1.2387
1.8351,570,1.8387
1.8394,714,2.3032
1.8437,600,1.9355
1.8480,398,1.2839
1.8523,427,1.3774
1.8566,633,2.0419
1.8608,697,2.2484
1.8651,521,1.6806
1.8693,370,1.1935
1.8736,486,1.5677
1.8778,679,2.1903
1.8821,672,2.1677
1.8863,459,1.4806
1.8906,377,1.2161
1.8949,566,1.8258
1.8997,719,2.3194
1.9040,586,1.8903
1.9083,395,1.2742
1.9126,454,1.4645
1.9169,665,2.1452
1.9212,707,2.2806
1.9255,508,1.6387
1.9298,374,1.2065
1.9341,521,1.6806
1.9384,696,2.2452
1.9428,635,2.0484
1.9471,413,1.3323
1.9515,381,1.2290
1.9558,584,1.8839
1.9601,690,2.2258
1.9645,530,1.7097
1.9690,342,1.1032
1.9734,451,1.4548
1.9777,651,2.1000
1.9821,640,2.0645
1.9864,418,1.3484
1.9909,341,1.1000
1.9953,535,1.7258
1.9997,658,2.1226
2.0041,512,1.6516
2.0085,323,1.0419
2.0128,411,1.3258
2.0172,648,2.0903
2.0217,707,2.2806
2.0261,556,1.7935
2.0304,540,1.7419
2.0348,804,2.5935
2.0391,998,3.2194
2.0436,840,2.7097
2.0480,430,1.3871
2.0524,303,0.9774
2.0567,476,1.5355
2.0611,542,1.7484
2.0656,357,1.1516
2.0699,243,0.7839
2.0743,417,1.3452
2.0787,599,1.9323
2.0832,521,1.6806
2.0876,305,0.9839
2.0920,315,1.0161
2.0963,531,1.7129
2.1007,607,1.9581
2.1050,423,1.3645
2.1094,266,0.8581
2.1137,395,1.2742
2.1181,591,1.9065
2.1224,562,1.8129
2.1267,344,1.1097
2.1311,289,0.9323
2.1355,489,1.5774
2.1398,613,1.9774
2.1442,470,1.5161
2.1486,281,0.9065
2.1529,359,1.1581
2.1573,572,1.8452
2.1617,590,1.9032
2.1660,382,1.2323
2.1704,282,0.9097
2.1747,460,1.4839
2.1791,618,1.9935
2.1834,522,1.6839
2.1877,309,0.9968
2.1920,318,1.0258
2.1964,536,1.7290
2.2007,612,1.9742
2.2051,432,1.3935
2.2094,280,0.9032
2.2137,407,1.3129
2.2180,604,1.9484
2.2224,577,1.8613
2.2267,363,1.1710
2.2311,314,1.0129
2.2355,522,1.6839
2.2398,646,2.0839
2.2442,507,1.6355
2.2485,318,1.0258
2.2528,390,1.2581
2.2572,605,1.9516
2.2615,636,2.0516
2.2658,434,1.4000
2.2701,318,1.0258
2.2744,482,1.5548
2.2788,652,2.1032
2.2832,569,1.8355
2.2875,355,1.1452
2.2919,358,1.1548
2.2962,570,1.8387
2.3006,650,2.0968
2.3050,465,1.5000
2.3093,302,0.9742
2.3136,421,1.3581
2.3180,609,1.9645
2.3224,576,1.8581
2.3267,355,1.1452
2.3310,302,0.9742
2.3354,501,1.6161
2.3397,629,2.0290
2.3441,494,1.5935
2.3484,297,0.9581
2.3528,363,1.1710
2.3572,575,1.8548
2.3615,605,1.9516
2.3659,393,1.2677
2.3703,277,0.8935
2.3746,439,1.4161
2.3789,595,1.9194
2.3833,508,1.6387
2.3876,297,0.9581
2.3920,307,0.9903
2.3963,523,1.6871
2.4007,597,1.9258
2.4050,416,1.3419
2.4093,262,0.8452
2.4137,393,1.2677
2.4181,588,1.8968
2.4224,554,1.7871
2.4267,332,1.0710
2.4311,276,0.8903
2.4354,477,1.5387
2.4398,606,1.9548
2.4442,464,1.4968
2.4486,276,0.8903
2.4530,356,1.1484
2.4573,567,1.8290
2.4617,588,1.8968
2.4660,379,1.2226
2.4704,278,0.8968
2.4747,458,1.4774
2.4791,618,1.9935
2.4834,527,1.7000
2.4877,314,1.0129
2.4922,335,1.0806
2.4966,548,1.7677
2.5009,615,1.9839
2.5053,427,1.3774
2.5096,283,0.9129
2.5140,426,1.3742
2.5184,611,1.9710
2.5227,560,1.8065
2.5270,339,1.0935
2.5314,301,0.9710
2.5357,508,1.6387
2.5401,621,2.0032
2.5444,470,1.5161
2.5488,285,0.9194
2.5531,374,1.2065
2.5575,583,1.8806
2.5618,588,1.8968
2.5662,374,1.2065
2.5705,283,0.9129
2.5749,470,1.5161
2.5792,624,2.0129
2.5836,524,1.6903
2.5879,319,1.0290
2.5922,345,1.1129
2.5966,562,1.8129
2.6009,630,2.0323
2.6053,441,1.4226
2.6096,299,0.9645
2.6139,440,1.4194
2.6183,633,2.0419
2.6226,595,1.9194
2.6269,383,1.2355
2.6312,337,1.0871
2.6356,537,1.7323
2.6399,658,2.1226
2.6443,512,1.6516
2.6486,320,1.0323
2.6530,397,1.2806
2.6573,606,1.9548
2.6617,627,2.0226
2.6660,423,1.3645
2.6703,322,1.0387
2.6746,500,1.6129
2.6790,661,2.1323
2.6833,572,1.8452
2.6876,363,1.1710
2.6919,374,1.2065
2.6963,586,1.8903
2.7006,667,2.1516
2.7049,485,1.5645
2.7093,314,1.0129
2.7136,425,1.3710
2.7179,628,2.0258
2.7223,621,2.0032
2.7266,411,1.3258
2.7309,345,1.1129
2.7353,541,1.7452
2.7396,674,2.1742
2.7439,546,1.7613
2.7483,346,1.1161
2.7526,398,1.2839
2.7569,610,1.9677
2.7613,647,2.0871
2.7656,444,1.4323
2.7699,316,1.0194
2.7743,474,1.5290
2.7786,653,2.1065
2.7830,584,1.8839
2.7873,366,1.1806
2.7917,349,1.1258
2.7960,560,1.8065
2.8003,661,2.1323
2.8047,504,1.6258
2.8090,333,1.0742
2.8134,438,1.4129
2.8177,642,2.0710
2.8221,648,2.0903
2.8264,448,1.4452
2.8308,390,1.2581
2.8352,630,2.0323
2.8395,844,2.7226
2.8438,809,2.6097
2.8482,671,2.1645
2.8526,736,2.3742
2.8569,842,2.7161
2.8613,689,2.2226
2.8656,355,1.1452
2.8700,213,0.6871
2.8744,399,1.2871
2.8787,601,1.9387
2.8831,546,1.7613
2.8875,339,1.0935
2.8918,335,1.0806
2.8961,539,1.7387
2.9004,622,2.0065
2.9047,450,1.4516
2.9090,276,0.8903
2.9133,379,1.2226
2.9176,582,1.8774
2.9219,581,1.8742
2.9263,368,1.1871
2.9306,280,0.9032
2.9349,467,1.5065
2.9392,620,2.0000
2.9435,524,1.6903
2.9478,317,1.0226
2.9521,344,1.1097
2.9564,569,1.8355
2.9607,650,2.0968
2.9650,475,1.5323
2.9693,316,1.0194
2.9736,440,1.4194
2.9779,639,2.0613
2.9822,621,2.0032
2.9866,407,1.3129
2.9909,340,1.0968
2.9952,536,1.7290
2.9996,670,2.1613
3.0039,549,1.7710
3.0082,350,1.1290
3.0125,400,1.2903
3.0168,609,1.9645
3.0211,659,2.1258
3.0254,464,1.4968
3.0298,326,1.0516
3.0342,485,1.5645
3.0387,665,2.1452
3.0432,586,1.8903
3.0476,375,1.2097
3.0520,389,1.2548
3.0564,611,1.9710
3.0608,696,2.2452
3.0652,513,1.6548
3.0696,364,1.1742
3.0740,508,1.6387
3.0784,698,2.2516
3.0828,649,2.0935
3.0871,430,1.3871
3.0914,396,1.2774
3.0957,599,1.9323
3.1000,715,2.3065
3.1044,567,1.8290
3.1087,381,1.2290
3.1132,465,1.5000
3.1175,663,2.1387
3.1219,656,2.1161
3.1263,435,1.4032
3.1307,346,1.1161
3.1351,536,1.7290
3.1395,673,2.1710
3.1438,547,1.7645
3.1482,343,1.1065
3.1526,387,1.2484
3.1570,595,1.9194
3.1614,628,2.0258
3.1657,423,1.3645
3.1701,306,0.9871
3.1744,475,1.5323
3.1788,649,2.0935
3.1831,579,1.8677
3.1875,363,1.1710
3.1918,354,1.1419
3.1961,562,1.8129
3.2006,645,2.0806
3.2049,462,1.4903
3.2092,293,0.9452
3.2136,408,1.3161
3.2179,600,1.9355
3.2223,582,1.8774
3.2266,368,1.1871
3.2309,302,0.9742
3.2352,491,1.5839
3.2394,632,2.0387
3.2437,520,1.6774
3.2480,320,1.0323
3.2523,357,1.1516
3.2567,577,1.8613
3.2610,639,2.0613
3.2653,448,1.4452
3.2697,308,0.9935
3.2740,446,1.4387
3.2783,626,2.0194
3.2827,582,1.8774
3.2871,369,1.1903
3.2914,332,1.0710
3.2957,540,1.7419
3.3000,658,2.1226
3.3043,514,1.6581
3.3087,326,1.0516
3.3130,408,1.3161
3.3174,621,2.0032
3.3217,636,2.0516
3.3261,428,1.3806
3.3304,325,1.0484
3.3347,501,1.6161
3.3390,667,2.1516
3.3433,579,1.8677
3.3477,364,1.1742
3.3520,372,1.2000
3.3564,589,1.9000
3.3607,670,2.1613
3.3650,492,1.5871
3.3693,336,1.0839
3.3737,463,1.4935
3.3780,659,2.1258
3.3824,633,2.0419
3.3867,412,1.3290
3.3911,352,1.1355
3.3954,552,1.7806
3.3997,681,2.1968
3.4041,547,1.7645
3.4085,350,1.1290
3.4128,420,1.3548
3.4172,631,2.0355
3.4215,657,2.1194
3.4259,447,1.4419
3.4302,338,1.0903
3.4346,512,1.6516
3.4389,678,2.1871
3.4433,589,1.9000
3.4477,379,1.2226
3.4520,390,1.2581
3.4564,608,1.9613
3.4607,685,2.2097
3.4650,507,1.6355
3.4694,353,1.1387
3.4737,486,1.5677
3.4780,681,2.1968
3.4824,652,2.1032
3.4867,435,1.4032
3.4910,376,1.2129
3.4954,576,1.8581
3.4998,715,2.3065
3.5041,589,1.9000
3.5084,395,1.2742
3.5128,458,1.4774
3.5171,667,2.1516
3.5214,697,2.2484
3.5258,490,1.5806
3.5301,371,1.1968
3.5345,540,1.7419
3.5389,710,2.2903
3.5432,626,2.0194
3.5476,408,1.3161
3.5519,406,1.3097
3.5562,619,1.9968
3.5605,705,2.2742
3.5648,538,1.7355
3.5692,377,1.2161
3.5735,489,1.5774
3.5779,686,2.2129
3.5822,677,2.1839
3.5865,462,1.4903
3.5908,384,1.2387
3.5951,572,1.8452
3.5994,712,2.2968
3.6037,607,1.9581
3.6080,423,1.3645
3.6123,479,1.5452
3.6167,727,2.3452
3.6210,839,2.7065
3.6254,719,2.3194
3.6298,656,2.1161
3.6341,848,2.7355
3.6384,994,3.2065
3.6427,784,2.5290
3.6470,388,1.2516
3.6513,283,0.9129
3.6556,497,1.6032
3.6599,648,2.0903
3.6643,529,1.7065
3.6686,355,1.1452
3.6731,448,1.4452
3.6774,661,2.1323
3.6818,672,2.1677
3.6861,455,1.4677
3.6904,351,1.1323
3.6947,531,1.7129
3.6991,690,2.2258
3.7035,589,1.9000
3.7078,375,1.2097
3.7121,398,1.2839
3.7164,616,1.9871
3.7208,693,2.2355
3.7251,508,1.6387
3.7294,348,1.1226
3.7337,474,1.5290
3.7380,671,2.1645
3.7424,648,2.0903
3.7466,429,1.3839
3.7509,360,1.1613
3.7553,545,1.7581
3.7596,671,2.1645
3.7639,536,1.7290
3.7683,328,1.0581
3.7726,380,1.2258
3.7773,608,1.9613
3.7817,624,2.0129
3.7860,416,1.3419
3.7903,311,1.0032
3.7947,483,1.5581
3.7990,646,2.0839
3.8033,564,1.8194
3.8076,353,1.1387
3.8119,362,1.1677
3.8163,580,1.8710
3.8206,662,2.1355
3.8250,488,1.5742
3.8293,332,1.0710
3.8336,455,1.4677
3.8379,653,2.1065
3.8422,635,2.0484
3.8466,419,1.3516
3.8509,353,1.1387
3.8552,551,1.7774
3.8595,692,2.2323
3.8639,567,1.8290
3.8683,367,1.1839
3.8726,421,1.3581
3.8770,647,2.0871
3.8815,686,2.2129
3.8859,484,1.5613
3.8902,369,1.1903
3.8945,530,1.7097
3.8990,692,2.2323
3.9033,595,1.9194
3.9077,372,1.2000
3.9120,370,1.1935
3.9164,584,1.8839
3.9208,664,2.1419
3.9251,478,1.5419
3.9294,318,1.0258
3.9338,436,1.4065
3.9381,631,2.0355
3.9425,597,1.9258
3.9468,374,1.2065
3.9512,316,1.0194
3.9555,509,1.6419
3.9599,631,2.0355
3.9642,483,1.5581
3.9686,290,0.9355
3.9729,358,1.1548
3.9772,573,1.8484
3.9815,605,1.9516
3.9859,399,1.2871
3.9904,291,0.9387
3.9947,467,1.5065
3.9991,625,2.0161
4.0034,539,1.7387
4.0077,328,1.0581
4.0121,342,1.1032
4.0165,562,1.8129
4.0208,638,2.0581
4.0252,458,1.4774
4.0295,302,0.9742
4.0338,435,1.4032
4.0382,630,2.0323
4.0426,591,1.9065
4.0469,373,1.2032
4.0513,326,1.0516
4.0556,531,1.7129
4.0600,652,2.1032
4.0644,505,1.6290
4.0689,320,1.0323
4.0734,419,1.3516
4.0779,627,2.0226
4.0823,610,1.9677
4.0867,389,1.2548
4.0910,327,1.0548
4.0954,525,1.6935
4.0997,654,2.1097
4.1041,522,1.6839
4.1085,328,1.0581
4.1128,394,1.2710
4.1172,601,1.9387
4.1216,612,1.9742
4.1260,394,1.2710
4.1304,283,0.9129
4.1348,462,1.4903
4.1392,618,1.9935
4.1436,512,1.6516
4.1480,301,0.9710
4.1524,337,1.0871
4.1568,556,1.7935
4.1612,604,1.9484
4.1658,390,1.2581
4.1704,274,0.8839
4.1747,456,1.4710
4.1791,622,2.0065
4.1835,524,1.6903
4.1879,312,1.0065
4.1923,336,1.0839
4.1967,556,1.7935
4.2012,608,1.9613
4.2057,409,1.3194
4.2102,291,0.9387
4.2147,468,1.5097
4.2191,627,2.0226
4.2234,532,1.7161
4.2278,318,1.0258
4.2321,331,1.0677
4.2365,547,1.7645
4.2409,619,1.9968
4.2454,431,1.3903
4.2498,296,0.9548
4.2543,454,1.4645
4.2589,631,2.0355
4.2633,549,1.7710
4.2677,331,1.0677
4.2721,345,1.1129
4.2767,582,1.8774
4.2812,649,2.0935
4.2856,449,1.4484
4.2900,312,1.0065
4.2943,464,1.4968
4.2987,639,2.0613
4.3031,568,1.8323
4.3075,348,1.1226
4.3120,348,1.1226
4.3164,566,1.8258
4.3209,637,2.0548
4.3253,444,1.4323
4.3298,295,0.9516
4.3342,447,1.4419
4.3386,630,2.0323
4.3431,558,1.8000
4.3476,337,1.0871
4.3522,348,1.1226
4.3565,569,1.8355
4.3609,642,2.0710
4.3652,458,1.4774
4.3696,307,0.9903
4.3740,446,1.4387
4.3783,648,2.0903
4.3827,625,2.0161
4.3870,428,1.3806
4.3913,417,1.3452
4.3957,679,2.1903
4.4000,873,2.8161
4.4044,809,2.6097
4.4088,677,2.1839
4.4132,750,2.4194
4.4176,799,2.5774
4.4220,613,1.9774
4.4264,318,1.0258
4.4307,241,0.7774
4.4351,455,1.4677
4.4395,627,2.0226
4.4438,528,1.7032
4.4482,330,1.0645
4.4526,375,1.2097
4.4570,588,1.8968
4.4613,632,2.0387
4.4657,436,1.4065
4.4700,315,1.0161
4.4743,475,1.5323
4.4787,657,2.1194
4.4831,590,1.9032
4.4875,368,1.1871
4.4918,359,1.1581
4.4962,576,1.8581
4.5006,671,2.1645
4.5050,497,1.6032
4.5094,338,1.0903
4.5138,463,1.4935
4.5182,657,2.1194
4.5225,627,2.0226
4.5269,406,1.3097
4.5312,359,1.1581
4.5356,562,1.8129
4.5399,684,2.2065
4.5443,540,1.7419
4.5486,346,1.1161
4.5531,425,1.3710
4.5574,635,2.0484
4.5618,650,2.0968
4.5661,439,1.4161
4.5705,340,1.0968
4.5748,518,1.6710
4.5791,674,2.1742
4.5834,586,1.8903
4.5876,374,1.2065
4.5919,377,1.2161
4.5962,587,1.8935
4.6005,683,2.2032
4.6048,525,1.6935
4.6090,358,1.1548
4.6133,459,1.4806
4.6176,663,2.1387
4.6219,672,2.1677
4.6262,468,1.5097
4.6304,371,1.1968
4.6347,545,1.7581
4.6390,707,2.2806
4.6432,630,2.0323
4.6475,421,1.3581
4.6517,414,1.3355
4.6560,624,2.0129
4.6603,726,2.3419
4.6645,576,1.8581
4.6689,390,1.2581
4.6732,476,1.5355
4.6775,679,2.1903
4.6818,686,2.2129
4.6861,476,1.5355
4.6903,361,1.1645
4.6946,522,1.6839
4.6989,682,2.2000
4.7031,606,1.9548
4.7074,391,1.2613
4.7116,364,1.1742
4.7158,565,1.8226
4.7201,673,2.1710
4.7243,529,1.7065
4.7285,340,1.0968
4.7327,395,1.2742
4.7369,604,1.9484
4.7412,651,2.1000
4.7454,463,1.4935
4.7496,318,1.0258
4.7538,446,1.4387
4.7580,639,2.0613
4.7622,621,2.0032
4.7665,411,1.3258
4.7707,333,1.0742
4.7749,509,1.6419
4.7791,663,2.1387
4.7834,576,1.8581
4.7876,368,1.1871
4.7918,364,1.1742
4.7960,570,1.8387
4.8002,674,2.1742
4.8044,525,1.6935
4.8086,345,1.1129
4.8128,412,1.3290
4.8171,620,2.0000
4.8213,671,2.1645
4.8255,486,1.5677
4.8298,350,1.1290
4.8340,486,1.5677
4.8382,664,2.1419
4.8424,637,2.0548
4.8467,425,1.3710
4.8509,357,1.1516
4.8551,547,1.7645
4.8593,698,2.2516
4.8635,600,1.9355
4.8678,392,1.2645
4.8720,391,1.2613
4.8762,590,1.9032
4.8804,682,2.2000
4.8846,525,1.6935
4.8889,344,1.1097
4.8931,430,1.3871
4.8974,632,2.0387
4.9016,650,2.0968
4.9058,451,1.4548
4.9100,329,1.0613
4.9143,481,1.5516
4.9185,656,2.1161
4.9227,609,1.9645
4.9270,397,1.2806
4.9312,349,1.1258
4.9354,542,1.7484
4.9396,673,2.1710
4.9440,548,1.7677
4.9483,351,1.1323
4.9525,395,1.2742
4.9568,611,1.9710
4.9611,670,2.1613
4.9653,482,1.5548
4.9696,337,1.0871
4.9739,469,1.5129
4.9782,656,2.1161
4.9824,629,2.0290
4.9867,413,1.3323
4.9910,347,1.1194
4.9952,539,1.7387
4.9995,682,2.2000
5.0037,572,1.8452
5.0146,509,1.6419
5.0190,679,2.1903
5.0234,596,1.9226
5.0277,387,1.2484
5.0320,396,1.2774
5.0362,606,1.9548
5.0404,702,2.2645
5.0446,552,1.7806
5.0489,375,1.2097
5.0531,451,1.4548
5.0573,648,2.0903
5.0615,676,2.1806
5.0657,479,1.5452
5.0699,358,1.1548
5.0742,520,1.6774
5.0784,711,2.2935
5.0826,671,2.1645
5.0868,453,1.4613
5.0911,391,1.2613
5.0953,582,1.8774
5.0995,716,2.3097
5.1037,610,1.9677
5.1079,408,1.3161
5.1121,420,1.3548
5.1163,624,2.0129
5.1205,707,2.2806
5.1248,542,1.7484
5.1290,371,1.1968
5.1332,463,1.4935
5.1375,663,2.1387
5.1417,678,2.1871
5.1459,484,1.5613
5.1501,373,1.2032
5.1543,527,1.7000
5.1585,699,2.2548
5.1627,646,2.0839
5.1669,436,1.4065
5.1712,389,1.2548
5.1754,589,1.9000
5.1796,738,2.3806
5.1838,645,2.0806
5.1881,475,1.5323
5.1923,543,1.7516
5.1965,816,2.6323
5.2008,969,3.1258
5.2051,862,2.7806
5.2093,713,2.3000
5.2135,711,2.2935
5.2178,721,2.3258
5.2220,600,1.9355
5.2262,376,1.2129
5.2305,300,0.9677
5.2347,491,1.5839
5.2389,667,2.1516
5.2432,605,1.9516
5.2474,405,1.3065
5.2516,385,1.2419
5.2558,584,1.8839
5.2601,702,2.2645
5.2643,563,1.8161
5.2685,377,1.2161
5.2727,437,1.4097
5.2770,645,2.0806
5.2812,695,2.2419
5.2855,509,1.6419
5.2898,376,1.2129
5.2941,522,1.6839
5.2985,704,2.2710
5.3028,660,2.1290
5.3072,447,1.4419
5.3114,412,1.3290
5.3157,610,1.9677
5.3200,729,2.3516
5.3243,589,1.9000
5.3287,406,1.3097
5.3332,493,1.5903
5.3375,699,2.2548
5.3419,709,2.2871
5.3461,508,1.6387
5.3504,408,1.3161
5.3546,572,1.8452
5.3588,737,2.3774
5.3631,671,2.1645
5.3673,462,1.4903
5.3715,431,1.3903
5.3757,624,2.0129
5.3799,746,2.4065
5.3841,621,2.0032
5.3883,434,1.4000
5.3925,476,1.5355
5.3968,682,2.2000
5.4010,742,2.3935
5.4053,556,1.7935
5.4096,406,1.3097
5.4138,531,1.7129
5.4180,720,2.3226
5.4223,716,2.3097
5.4265,515,1.6613
5.4308,441,1.4226
5.4350,624,2.0129
5.4392,777,2.5065
5.4435,691,2.2290
5.4477,491,1.5839
5.4519,490,1.5806
5.4561,689,2.2226
5.4603,786,2.5355
5.4645,634,2.0452
5.4687,451,1.4548
5.4729,517,1.6677
5.4771,720,2.3226
5.4813,759,2.4484
5.4856,562,1.8129
5.4899,418,1.3484
5.4941,556,1.7935
5.4984,729,2.3516
5.5027,686,2.2129
5.5069,472,1.5226
5.5111,412,1.3290
5.5153,600,1.9355
5.5195,736,2.3742
5.5237,629,2.0290
5.5280,425,1.3710
5.5322,449,1.4484
5.5365,658,2.1226
5.5407,736,2.3742
5.5449,576,1.8581
5.5491,413,1.3323
5.5533,506,1.6323
5.5575,700,2.2581
5.5617,719,2.3194
5.5660,516,1.6645
5.5702,406,1.3097
5.5745,569,1.8355
5.5788,737,2.3774
5.5831,670,2.1613
5.5874,458,1.4774
5.5917,437,1.4097
5.5960,636,2.0516
5.6003,726,2.3419
5.6047,564,1.8194
5.6090,393,1.2677
5.6133,492,1.5871
5.6176,704,2.2710
5.6220,717,2.3129
5.6263,513,1.6548
5.6306,415,1.3387
5.6349,585,1.8871
5.6393,729,2.3516
5.6444,587,1.8935
5.6489,400,1.2903
5.6535,506,1.6323
5.6580,712,2.2968
5.6623,700,2.2581
5.6668,480,1.5484
5.6712,424,1.3677
5.6756,622,2.0065
5.6799,752,2.4258
5.6843,625,2.0161
5.6886,439,1.4161
5.6931,524,1.6903
5.6974,734,2.3677
5.7018,754,2.4323
5.7062,548,1.7677
5.7105,450,1.4516
5.7149,633,2.0419
5.7193,788,2.5419
5.7236,690,2.2258
5.7280,486,1.5677
5.7323,508,1.6387
5.7367,720,2.3226
5.7411,787,2.5387
5.7455,596,1.9226
5.7499,459,1.4806
5.7542,610,1.9677
5.7587,791,2.5516
5.7631,726,2.3419
5.7675,513,1.6548
5.7719,505,1.6290
5.7762,718,2.3161
5.7806,815,2.6290
5.7850,646,2.0839
5.7893,489,1.5774
5.7936,606,1.9548
5.7981,799,2.5774
5.8025,771,2.4871
5.8069,552,1.7806
5.8113,499,1.6097
5.8157,699,2.2548
5.8200,816,2.6323
5.8244,668,2.1548
5.8287,474,1.5290
5.8331,553,1.7839
5.8375,757,2.4419
5.8418,769,2.4806
5.8462,561,1.8097
5.8505,462,1.4903
5.8549,634,2.0452
5.8592,785,2.5323
5.8635,691,2.2290
5.8679,487,1.5710
5.8723,508,1.6387
5.8766,717,2.3129
5.8809,785,2.5323
5.8852,605,1.9516
5.8896,453,1.4613
5.8939,594,1.9161
5.8983,796,2.5677
5.9026,784,2.5290
5.9070,606,1.9548
5.9113,614,1.9806
5.9156,884,2.8516
5.9199,1000,3.2258
5.9242,982,3.1677
5.9285,785,2.5323
5.9329,648,2.0903
5.9372,682,2.2000
5.9415,668,2.1548
5.9458,474,1.5290
5.9502,371,1.1968
5.9546,553,1.7839
5.9589,733,2.3645
5.9631,677,2.1839
5.9674,469,1.5129
5.9717,449,1.4484
5.9760,655,2.1129
5.9802,759,2.4484
5.9845,608,1.9613
5.9888,423,1.3645
5.9931,499,1.6097
5.9974,704,2.2710
6.0017,732,2.3613
6.0060,528,1.7032
6.0103,415,1.3387
6.0146,575,1.8548
6.0189,741,2.3903
6.0232,670,2.1613
6.0275,461,1.4871
6.0317,442,1.4258
6.0360,642,2.0710
6.0403,743,2.3968
6.0446,590,1.9032
6.0489,414,1.3355
6.0531,493,1.5903
6.0574,698,2.2516
6.0617,723,2.3323
6.0660,519,1.6742
6.0702,399,1.2871
6.0745,557,1.7968
6.0789,724,2.3355
6.0832,652,2.1032
6.0875,441,1.4226
6.0917,428,1.3806
6.0960,635,2.0484
6.1003,738,2.3806
6.1046,588,1.8968
6.1089,406,1.3097
6.1132,496,1.6000
6.1175,705,2.2742
6.1218,720,2.3226
6.1261,511,1.6484
6.1303,403,1.3000
6.1346,570,1.8387
6.1389,737,2.3774
6.1432,667,2.1516
6.1474,457,1.4742
6.1517,443,1.4290
6.1559,646,2.0839
6.1602,753,2.4290
6.1645,606,1.9548
6.1688,427,1.3774
6.1731,504,1.6258
6.1774,707,2.2806
6.1817,728,2.3484
6.1860,523,1.6871
6.1902,401,1.2935
6.1945,553,1.7839
6.1987,649,2.0935
6.2031,556,1.7935
6.2073,360,1.1613
6.2116,361,1.1645
6.2159,576,1.8581
6.2201,682,2.2000
6.2244,533,1.7194
6.2287,348,1.1226
6.2332,427,1.3774
6.2375,636,2.0516
6.2418,651,2.1000
6.2461,442,1.4258
6.2504,337,1.0871
6.2547,504,1.6258
6.2589,665,2.1452
6.2632,583,1.8806
6.2675,370,1.1935
6.2718,358,1.1548
6.2761,568,1.8323
6.2803,668,2.1548
6.2847,506,1.6323
6.2890,329,1.0613
6.2932,417,1.3452
6.2975,618,1.9935
6.3018,630,2.0323
6.3061,424,1.3677
6.3104,323,1.0419
6.3147,491,1.5839
6.3190,649,2.0935
6.3233,566,1.8258
6.3275,355,1.1452
6.3318,349,1.1258
6.3360,556,1.7935
6.3403,658,2.1226
6.3445,506,1.6323
6.3487,319,1.0290
6.3530,391,1.2613
6.3572,599,1.9323
6.3614,634,2.0452
6.3656,441,1.4226
6.3698,302,0.9742
6.3740,438,1.4129
6.3783,622,2.0065
6.3826,585,1.8871
6.3869,361,1.1645
6.3913,306,0.9871
6.3956,504,1.6258
6.3999,628,2.0258
6.4041,494,1.5935
6.4085,296,0.9548
6.4128,353,1.1387
6.4171,563,1.8161
6.4214,601,1.9387
6.4257,402,1.2968
6.4299,270,0.8710
6.4343,414,1.3355
6.4385,584,1.8839
6.4427,523,1.6871
6.4470,305,0.9839
6.4512,261,0.8419
6.4555,465,1.5000
6.4597,596,1.9226
6.4639,474,1.5290
6.4681,275,0.8871
6.4724,304,0.9806
6.4766,512,1.6516
6.4808,584,1.8839
6.4850,409,1.3194
6.4892,248,0.8000
6.4934,351,1.1323
6.4976,551,1.7774
6.5018,560,1.8065
6.5060,357,1.1516
6.5103,246,0.7935
6.5145,409,1.3194
6.5187,580,1.8710
6.5229,521,1.6806
6.5271,304,0.9806
6.5313,263,0.8484
6.5356,463,1.4935
6.5398,589,1.9000
6.5440,462,1.4903
6.5482,270,0.8710
6.5525,315,1.0161
6.5568,529,1.7065
6.5611,584,1.8839
6.5654,388,1.2516
6.5697,242,0.7806
6.5741,383,1.2355
6.5784,570,1.8387
6.5827,532,1.7161
6.5870,324,1.0452
6.5913,282,0.9097
6.5957,481,1.5516
6.6001,592,1.9097
6.6044,444,1.4323
6.6087,257,0.8290
6.6130,331,1.0677
6.6173,541,1.7452
6.6215,568,1.8323
6.6258,365,1.1774
6.6301,243,0.7839
6.6344,399,1.2871
6.6387,572,1.8452
6.6430,511,1.6484
6.6473,294,0.9484
6.6516,268,0.8645
6.6559,477,1.5387
6.6602,589,1.9000
6.6645,442,1.4258
6.6688,262,0.8452
6.6731,343,1.1065
6.6774,550,1.7742
6.6817,571,1.8419
6.6860,377,1.2161
6.6904,284,0.9161
6.6947,466,1.5032
6.6990,664,2.1419
6.7033,651,2.1000
6.7076,528,1.7032
6.7119,613,1.9774
6.7162,862,2.7806
6.7204,892,2.8774
6.7248,526,1.6968
6.7290,179,0.5774
6.7333,230,0.7419
6.7376,456,1.4710
6.7419,496,1.6000
6.7462,306,0.9871
6.7505,224,0.7226
6.7548,410,1.3226
6.7591,566,1.8258
6.7634,477,1.5387
6.7676,268,0.8645
6.7718,258,0.8323
6.7760,468,1.5097
6.7802,574,1.8516
6.7845,427,1.3774
6.7887,244,0.7871
6.7929,313,1.0097
6.7972,523,1.6871
6.8014,561,1.8097
6.8056,366,1.1806
6.8098,233,0.7516
6.8140,372,1.2000
6.8183,556,1.7935
6.8225,525,1.6935
6.8267,309,0.9968
6.8309,230,0.7419
6.8352,410,1.3226
6.8395,555,1.7903
6.8437,448,1.4452
6.8479,250,0.8065
6.8521,271,0.8742
6.8563,490,1.5806
6.8605,582,1.8774
6.8648,414,1.3355
6.8690,239,0.7710
6.8732,326,1.0516
6.8774,537,1.7323
6.8817,555,1.7903
6.8859,341,1.1000
6.8902,223,0.7194
6.8945,391,1.2613
6.8988,573,1.8484
6.9031,507,1.6355
6.9075,293,0.9452
6.9117,278,0.8968
6.9160,488,1.5742
6.9202,600,1.9355
6.9245,454,1.4645
6.9287,274,0.8839
6.9330,348,1.1226
6.9372,562,1.8129
6.9414,603,1.9452
6.9457,409,1.3194
6.9499,278,0.8968
6.9541,416,1.3419
6.9582,605,1.9516
6.9624,580,1.8710
6.9667,364,1.1742
6.9709,292,0.9419
6.9751,472,1.5226
6.9793,619,1.9968
6.9837,513,1.6548
6.9879,302,0.9742
6.9921,312,1.0065
6.9963,519,1.6742
7.0005,601,1.9387
7.0048,434,1.4000
7.0090,255,0.8226
7.0132,335,1.0806
7.0174,541,1.7452
7.0216,565,1.8226
7.0258,363,1.1710
7.0300,227,0.7323
7.0342,363,1.1710
7.0385,543,1.7516
7.0427,506,1.6323
7.0469,293,0.9452
7.0512,239,0.7710
7.0555,442,1.4258
7.0598,578,1.8645
7.0641,452,1.4581
7.0683,256,0.8258
7.0725,298,0.9613
7.0767,512,1.6516
7.0809,585,1.8871
7.0851,409,1.3194
7.0893,250,0.8065
7.0936,358,1.1548
7.0978,559,1.8032
7.1019,567,1.8290
7.1061,360,1.1613
7.1104,252,0.8129
7.1146,411,1.3258
7.1188,576,1.8581
7.1230,508,1.6387
7.1272,284,0.9161
7.1314,243,0.7839
7.1357,441,1.4226
7.1399,565,1.8226
7.1441,436,1.4065
7.1484,241,0.7774
7.1526,288,0.9290
7.1568,504,1.6258
7.1610,571,1.8419
7.1652,390,1.2581
7.1695,235,0.7581
7.1737,358,1.1548
7.1780,556,1.7935
7.1822,547,1.7645
7.1864,333,1.0742
7.1906,241,0.7774
7.1949,422,1.3613
7.1991,584,1.8839
7.2033,509,1.6419
7.2075,294,0.9484
7.2117,274,0.8839
7.2159,483,1.5581
7.2201,599,1.9323
7.2243,466,1.5032
7.2285,275,0.8871
7.2328,332,1.0710
7.2370,545,1.7581
7.2412,593,1.9129
7.2455,403,1.3000
7.2497,259,0.8355
7.2539,395,1.2742
7.2581,594,1.9161
7.2623,578,1.8645
7.2665,361,1.1645
7.2707,272,0.8774
7.2750,453,1.4613
7.2792,612,1.9742
7.2834,531,1.7129
7.2876,319,1.0290
7.2920,313,1.0097
7.2962,530,1.7097
7.3005,623,2.0097
7.3047,463,1.4935
7.3089,289,0.9323
7.3132,369,1.1903
7.3174,579,1.8677
7.3215,610,1.9677
7.3257,418,1.3484
7.3299,292,0.9419
7.3342,443,1.4290
7.3384,633,2.0419
7.3426,599,1.9323
7.3468,383,1.2355
7.3510,318,1.0258
7.3553,511,1.6484
7.3595,662,2.1355
7.3637,570,1.8387
7.3679,364,1.1742
7.3721,362,1.1677
7.3763,565,1.8226
7.3806,652,2.1032
7.3848,488,1.5742
7.3890,309,0.9968
7.3932,392,1.2645
7.3974,600,1.9355
7.4016,626,2.0194
7.4058,423,1.3645
7.4100,294,0.9484
7.4143,444,1.4323
7.4185,630,2.0323
7.4227,596,1.9226
7.4269,382,1.2323
7.4311,320,1.0323
7.4353,512,1.6516
7.4395,653,2.1065
7.4438,551,1.7774
7.4480,348,1.1226
7.4522,364,1.1742
7.4564,576,1.8581
7.4606,669,2.1581
7.4648,522,1.6839
7.4690,369,1.1903
7.4732,482,1.5548
7.4775,733,2.3645
7.4818,812,2.6194
7.4862,672,2.1677
7.4908,653,2.1065
7.4952,887,2.8613
7.4996,970,3.1290
7.5040,656,2.1161
7.5083,282,0.9097
7.5126,281,0.9065
7.5169,522,1.6839
7.5213,605,1.9516
7.5256,427,1.3774
7.5298,302,0.9742
7.5341,453,1.4613
7.5384,642,2.0710
7.5427,604,1.9484
7.5470,386,1.2452
7.5512,335,1.0806
7.5555,536,1.7290
7.5598,669,2.1581
7.5641,543,1.7516
7.5684,343,1.1065
7.5727,390,1.2581
7.5769,609,1.9645
7.5813,664,2.1419
7.5856,469,1.5129
7.5898,326,1.0516
7.5941,468,1.5097
7.5984,655,2.1129
7.6027,617,1.9903
7.6071,399,1.2871
7.6114,359,1.1581
7.6157,563,1.8161
7.6199,695,2.2419
7.6242,567,1.8290
7.6284,373,1.2032
7.6327,428,1.3806
7.6370,643,2.0742
7.6412,699,2.2548
7.6455,508,1.6387
7.6498,368,1.1871
7.6541,510,1.6452
7.6584,702,2.2645
7.6628,662,2.1355
7.6673,435,1.4032
7.6717,406,1.3097
7.6761,624,2.0129
7.6806,719,2.3194
7.6851,542,1.7484
7.6895,380,1.2258
7.6939,512,1.6516
7.6982,709,2.2871
7.7025,685,2.2097
7.7069,460,1.4839
7.7113,403,1.3000
7.7157,610,1.9677
7.7201,739,2.3839
7.7244,598,1.9290
7.7288,409,1.3194
7.7331,488,1.5742
7.7375,700,2.2581
7.7419,723,2.3323
7.7462,514,1.6581
7.7506,408,1.3161
7.7549,584,1.8839
7.7593,742,2.3935
7.7636,638,2.0581
7.7680,421,1.3581
7.7724,435,1.4032
7.7768,649,2.0935
7.7811,708,2.2839
7.7855,509,1.6419
7.7899,353,1.1387
7.7942,494,1.5935
7.7986,675,2.1774
7.8030,617,1.9903
7.8074,395,1.2742
7.8118,369,1.1903
7.8162,582,1.8774
7.8205,683,2.2032
7.8249,516,1.6645
7.8294,346,1.1161
7.8337,462,1.4903
7.8381,662,2.1355
7.8424,640,2.0645
7.8467,422,1.3613
7.8511,350,1.1290
7.8555,553,1.7839
7.8599,692,2.2323
7.8642,560,1.8065
7.8686,360,1.1613
7.8730,425,1.3710
7.8774,643,2.0742
7.8818,670,2.1613
7.8862,457,1.4742
7.8906,354,1.1419
7.8950,543,1.7516
7.8994,703,2.2677
7.9038,598,1.9290
7.9082,385,1.2419
7.9126,422,1.3613
7.9170,646,2.0839
7.9214,700,2.2581
7.9257,502,1.6194
7.9301,368,1.1871
7.9344,518,1.6710
7.9387,698,2.2516
7.9431,639,2.0613
7.9474,417,1.3452
7.9518,393,1.2677
7.9561,605,1.9516
7.9605,712,2.2968
7.9648,551,1.7774
7.9691,366,1.1806
7.9735,464,1.4968
7.9778,671,2.1645
7.9822,668,2.1548
7.9865,454,1.4645
7.9908,369,1.1903
7.9952,556,1.7935
7.9995,707,2.2806
8.0039,599,1.9323
8.0082,386,1.2452
8.0125,415,1.3387
8.0169,633,2.0419
8.0212,696,2.2452
8.0256,502,1.6194
8.0299,356,1.1484
8.0342,497,1.6032
8.0385,684,2.2065
8.0427,644,2.0774
8.0469,427,1.3774
8.0511,356,1.1484
8.0554,549,1.7710
8.0596,690,2.2258
8.0638,587,1.8935
8.0680,383,1.2355
8.0722,393,1.2677
8.0765,611,1.9710
8.0808,697,2.2484
8.0850,524,1.6903
8.0893,352,1.1355
8.0936,452,1.4581
8.0978,646,2.0839
8.1021,638,2.0581
8.1063,421,1.3581
8.1106,315,1.0161
8.1149,492,1.5871
8.1192,660,2.1290
8.1234,582,1.8774
8.1276,368,1.1871
8.1318,348,1.1226
8.1361,556,1.7935
8.1403,673,2.1710
8.1445,535,1.7258
8.1487,355,1.1452
8.1530,420,1.3548
8.1572,632,2.0387
8.1614,674,2.1742
8.1656,479,1.5452
8.1698,330,1.0645
8.1740,450,1.4516
8.1782,639,2.0613
8.1824,629,2.0290
8.1866,418,1.3484
8.1908,329,1.0613
8.1951,507,1.6355
8.1993,660,2.1290
8.2036,567,1.8290
8.2078,356,1.1484
8.2120,349,1.1258
8.2162,560,1.8065
8.2204,665,2.1452
8.2246,517,1.6677
8.2288,331,1.0677
8.2331,403,1.3000
8.2373,613,1.9774
8.2415,656,2.1161
8.2458,460,1.4839
8.2500,327,1.0548
8.2543,490,1.5806
8.2586,697,2.2484
8.2629,683,2.2032
8.2672,503,1.6226
8.2715,520,1.6774
8.2758,801,2.5839
8.2801,990,3.1935
8.2844,878,2.8323
8.2887,561,1.8097
8.2930,422,1.3613
8.2973,522,1.6839
8.3015,552,1.7806
8.3058,374,1.2065
8.3101,262,0.8452
8.3145,431,1.3903
8.3188,626,2.0194
8.3232,567,1.8290
8.3276,346,1.1161
8.3319,326,1.0516
8.3362,537,1.7323
8.3405,642,2.0710
8.3448,483,1.5581
8.3491,304,0.9806
8.3534,398,1.2839
8.3577,614,1.9806
8.3619,633,2.0419
8.3662,426,1.3742
8.3705,317,1.0226
8.3748,484,1.5613
8.3790,654,2.1097
8.3834,586,1.8903
8.3877,369,1.1903
8.3919,355,1.1452
8.3962,564,1.8194
8.4005,671,2.1645
8.4048,514,1.6581
8.4091,337,1.0871
8.4134,427,1.3774
8.4177,637,2.0548
8.4220,656,2.1161
8.4263,452,1.4581
8.4306,357,1.1516
8.4349,534,1.7226
8.4391,701,2.2613
8.4434,626,2.0194
8.4477,417,1.3452
8.4519,406,1.3097
8.4562,615,1.9839
8.4603,722,2.3290
8.4646,575,1.8548
8.4688,382,1.2323
8.4730,448,1.4452
8.4773,666,2.1484
8.4815,718,2.3161
8.4858,527,1.7000
8.4901,396,1.2774
8.4945,554,1.7871
8.4989,738,2.3806
8.5032,677,2.1839
8.5076,460,1.4839
8.5119,444,1.4323
8.5161,658,2.1226
8.5203,767,2.4742
8.5246,624,2.0129
8.5288,435,1.4032
8.5331,503,1.6226
8.5373,713,2.3000
8.5415,756,2.4387
8.5457,559,1.8032
8.5500,416,1.3419
8.5543,557,1.7968
8.5586,738,2.3806
8.5629,688,2.2194
8.5672,462,1.4903
8.5714,400,1.2903
8.5756,590,1.9032
8.5799,723,2.3323
8.5842,595,1.9194
8.5885,391,1.2613
8.5927,428,1.3806
8.5970,644,2.0774
8.6013,703,2.2677
8.6055,517,1.6677
8.6098,364,1.1742
8.6141,489,1.5774
8.6183,681,2.1968
8.6226,658,2.1226
8.6268,440,1.4194
8.6310,364,1.1742
8.6352,547,1.7645
8.6394,704,2.2710
8.6437,611,1.9710
8.6479,397,1.2806
8.6521,395,1.2742
8.6564,605,1.9516
8.6606,707,2.2806
8.6649,547,1.7645
8.6692,364,1.1742
8.6735,455,1.4677
8.6778,661,2.1323
8.6822,669,2.1581
8.6865,454,1.4645
8.6908,356,1.1484
8.6951,536,1.7290
8.6994,694,2.2387
8.7037,605,1.9516
8.7080,398,1.2839
8.7122,400,1.2903
8.7165,614,1.9806
8.7208,701,2.2613
8.7250,536,1.7290
8.7294,359,1.1581
8.7338,472,1.5226
8.7381,679,2.1903
8.7423,676,2.1806
8.7466,460,1.4839
8.7509,369,1.1903
8.7552,549,1.7710
8.7594,701,2.2613
8.7636,607,1.9581
8.7678,388,1.2516
8.7721,380,1.2258
8.7763,591,1.9065
8.7805,700,2.2581
8.7847,553,1.7839
8.7889,360,1.1613
8.7932,417,1.3452
8.7974,621,2.0032
8.8016,670,2.1613
8.8058,479,1.5452
8.8100,334,1.0774
8.8142,461,1.4871
8.8184,642,2.0710
8.8226,610,1.9677
8.8268,392,1.2645
8.8312,315,1.0161
8.8354,507,1.6355
8.8396,662,2.1355
8.8439,562,1.8129
8.8481,348,1.1226
8.8524,361,1.1645
8.8566,578,1.8645
8.8609,666,2.1484
8.8653,494,1.5935
8.8696,332,1.0710
8.8739,452,1.4581
8.8782,654,2.1097
8.8826,639,2.0613
8.8869,422,1.3613
8.8912,353,1.1387
8.8956,550,1.7742
8.8999,690,2.2258
8.9042,567,1.8290
8.9085,371,1.1968
8.9128,424,1.3677
8.9171,641,2.0677
8.9214,695,2.2419
8.9256,498,1.6065
8.9299,347,1.1194
8.9342,483,1.5581
8.9385,674,2.1742
8.9428,647,2.0871
8.9470,426,1.3742
8.9514,360,1.1613
8.9557,563,1.8161
8.9600,709,2.2871
8.9642,588,1.8968
8.9685,387,1.2484
8.9728,431,1.3903
8.9771,652,2.1032
8.9815,708,2.2839
8.9857,518,1.6710
8.9900,374,1.2065
8.9942,511,1.6484
8.9985,702,2.2645
9.0028,670,2.1613
9.0071,451,1.4548
9.0114,394,1.2710
9.0156,610,1.9677
9.0199,771,2.4871
9.0241,687,2.2161
9.0283,526,1.6968
9.0325,609,1.9645
9.0367,896,2.8903
9.0410,999,3.2226
9.0452,894,2.8839
9.0494,614,1.9806
9.0536,509,1.6419
9.0578,595,1.9194
9.0621,595,1.9194
9.0663,411,1.3258
9.0705,319,1.0290
9.0747,496,1.6000
9.0789,690,2.2258
9.0831,651,2.1000
9.0873,436,1.4065
9.0915,389,1.2548
9.0958,592,1.9097
9.1001,721,2.3258
9.1044,593,1.9129
9.1086,398,1.2839
9.1128,442,1.4258
9.1171,658,2.1226
9.1213,715,2.3065
9.1256,525,1.6935
9.1298,363,1.1710
9.1340,481,1.5516
9.1382,682,2.2000
9.1425,677,2.1839
9.1468,469,1.5129
9.1510,387,1.2484
9.1552,568,1.8323
9.1594,728,2.3484
9.1636,640,2.0645
9.1678,420,1.3548
9.1720,400,1.2903
9.1763,606,1.9548
9.1805,716,2.3097
9.1848,565,1.8226
9.1891,384,1.2387
9.1934,468,1.5097
9.1977,680,2.1935
9.2019,709,2.2871
9.2062,507,1.6355
9.2105,386,1.2452
9.2148,552,1.7806
9.2191,731,2.3581
9.2234,667,2.1516
9.2277,449,1.4484
9.2319,430,1.3871
9.2362,643,2.0742
9.2404,759,2.4484
9.2447,618,1.9935
9.2489,425,1.3710
9.2531,486,1.5677
9.2573,703,2.2677
9.2616,759,2.4484
9.2658,565,1.8226
9.2701,425,1.3710
9.2743,564,1.8194
9.2785,755,2.4355
9.2827,738,2.3806
9.2869,525,1.6935
9.2911,446,1.4387
9.2954,633,2.0419
9.2996,782,2.5226
9.3039,684,2.2065
9.3081,466,1.5032
9.3123,465,1.5000
9.3166,671,2.1645
9.3208,763,2.4613
9.3250,598,1.9290
9.3292,407,1.3129
9.3335,481,1.5516
9.3377,687,2.2161
9.3423,704,2.2710
9.3465,490,1.5806
9.3507,382,1.2323
9.3549,545,1.7581
9.3592,713,2.3000
9.3634,641,2.0677
9.3676,426,1.3742
9.3718,392,1.2645
9.3760,593,1.9129
9.3802,714,2.3032
9.3845,579,1.8677
9.3889,376,1.2129
9.3932,440,1.4194
9.3976,655,2.1129
9.4019,687,2.2161
9.4061,486,1.5677
9.4104,361,1.1645
9.4146,513,1.6548
9.4188,698,2.2516
9.4230,656,2.1161
9.4272,435,1.4032
9.4314,371,1.1968
9.4356,568,1.8323
9.4399,716,2.3097
9.4442,599,1.9323
9.4486,389,1.2548
9.4529,428,1.3806
9.4573,645,2.0806
9.4617,695,2.2419
9.4660,495,1.5968
9.4703,362,1.1677
9.4746,512,1.6516
9.4789,698,2.2516
9.4832,647,2.0871
9.4875,421,1.3581
9.4918,379,1.2226
9.4961,589,1.9000
9.5005,706,2.2774
9.5048,562,1.8129
9.5090,370,1.1935
9.5133,444,1.4323
9.5176,657,2.1194
9.5219,686,2.2129
9.5262,480,1.5484
9.5305,355,1.1452
9.5348,513,1.6548
9.5391,683,2.2032
9.5433,617,1.9903
9.5476,395,1.2742
9.5519,362,1.1677
9.5562,567,1.8290
9.5605,682,2.2000
9.5648,536,1.7290
9.5690,342,1.1032
9.5733,409,1.3194
9.5776,619,1.9968
9.5818,655,2.1129
9.5860,459,1.4806
9.5902,321,1.0355
9.5945,462,1.4903
9.5989,647,2.0871
9.6032,596,1.9226
9.6074,380,1.2258
9.6116,330,1.0645
9.6159,537,1.7323
9.6201,674,2.1742
9.6243,547,1.7645
9.6285,338,1.0903
9.6328,370,1.1935
9.6370,589,1.9000
9.6413,664,2.1419
9.6455,485,1.5645
9.6497,327,1.0548
9.6540,438,1.4129
9.6582,635,2.0484
9.6624,635,2.0484
9.6666,418,1.3484
9.6708,315,1.0161
9.6751,488,1.5742
9.6793,657,2.1194
9.6835,587,1.8935
9.6877,367,1.1839
9.6919,335,1.0806
9.6961,540,1.7419
9.7004,663,2.1387
9.7046,531,1.7129
9.7088,332,1.0710
9.7130,380,1.2258
9.7173,601,1.9387
9.7216,677,2.1839
9.7258,505,1.6290
9.7302,393,1.2677
9.7345,594,1.9161
9.7389,859,2.7710
9.7432,895,2.8871
9.7474,721,2.3258
9.7517,625,2.0161
9.7560,651,2.1000
9.7603,609,1.9645
9.7646,423,1.3645
9.7688,237,0.7645
9.7731,307,0.9903
9.7773,538,1.7355
9.7815,610,1.9677
9.7857,436,1.4065
9.7900,286,0.9226
9.7942,411,1.3258
9.7985,611,1.9710
9.8029,582,1.8774
9.8072,361,1.1645
9.8116,303,0.9774
9.8159,502,1.6194
9.8202,632,2.0387
9.8244,503,1.6226
9.8287,302,0.9742
9.8330,343,1.1065
9.8372,559,1.8032
9.8415,621,2.0032
9.8457,432,1.3935
9.8499,278,0.8968
9.8541,397,1.2806
9.8584,594,1.9161
9.8626,572,1.8452
9.8669,352,1.1355
9.8712,271,0.8742
9.8755,464,1.4968
9.8798,624,2.0129
9.8840,526,1.6968
9.8883,320,1.0323
9.8926,333,1.0742
9.8968,551,1.7774
9.9011,635,2.0484
9.9054,455,1.4677
9.9097,290,0.9355
9.9139,396,1.2774
9.9182,602,1.9419
9.9225,605,1.9516
9.9266,398,1.2839
9.9308,294,0.9484
9.9351,463,1.4935
9.9393,638,2.0581
9.9435,575,1.8548
9.9477,358,1.1548
9.9519,326,1.0516
9.9561,530,1.7097
9.9603,661,2.1323
9.9646,532,1.7161
9.9689,332,1.0710
9.9732,389,1.2548
9.9775,608,1.9613
9.9819,651,2.1000
9.9863,442,1.4258
9.9907,326,1.0516
9.9953,511,1.6484
9.9999,671,2.1645
10.0049,519,1.6742
10.0094,322,1.0387
10.0242,534,1.7226
10.0287,314,1.0129
10.0333,367,1.1839
10.0378,587,1.8935
10.0421,609,1.9645
10.0465,392,1.2645
10.0509,280,0.9032
10.0553,456,1.4710
10.0597,606,1.9548
10.0640,495,1.5968
10.0684,271,0.8742
10.0728,288,0.9290
10.0772,511,1.6484
10.0816,578,1.8645
10.0859,380,1.2258
10.0903,233,0.7516
10.0947,381,1.2290
10.0990,568,1.8323
10.1034,515,1.6613
10.1078,290,0.9355
10.1122,265,0.8548
10.1165,480,1.5484
10.1208,590,1.9032
10.1252,425,1.3710
10.1296,245,0.7903
10.1340,350,1.1290
10.1383,556,1.7935
10.1427,549,1.7710
10.1470,331,1.0677
10.1514,256,0.8258
10.1558,452,1.4581
10.1602,588,1.8968
10.1646,457,1.4742
10.1689,254,0.8194
10.1733,311,1.0032
10.1777,532,1.7161
10.1821,567,1.8290
10.1865,361,1.1645
10.1909,255,0.8226
10.1953,440,1.4194
10.1997,600,1.9355
10.2041,498,1.6065
10.2085,282,0.9097
10.2129,311,1.0032
10.2173,531,1.7129
10.2216,589,1.9000
10.2260,397,1.2806
10.2303,255,0.8226
10.2347,406,1.3097
10.2391,593,1.9129
10.2435,535,1.7258
10.2479,316,1.0194
10.2523,301,0.9710
10.2567,520,1.6774
10.2611,616,1.9871
10.2654,445,1.4355
10.2698,273,0.8806
10.2742,391,1.2613
10.2786,599,1.9323
10.2830,575,1.8548
10.2874,353,1.1387
10.2918,297,0.9581
10.2962,506,1.6323
10.3007,628,2.0258
10.3051,473,1.5258
10.3094,284,0.9161
10.3139,378,1.2194
10.3182,589,1.9000
10.3226,592,1.9097
10.3269,382,1.2323
10.3312,297,0.9581
10.3356,486,1.5677
10.3399,639,2.0613
10.3442,532,1.7161
10.3486,322,1.0387
10.3529,360,1.1613
10.3573,585,1.8871
10.3617,647,2.0871
10.3660,453,1.4613
10.3703,311,1.0032
10.3746,453,1.4613
10.3790,642,2.0710
10.3833,598,1.9290
10.3877,388,1.2516
10.3920,360,1.1613
10.3964,570,1.8387
10.4007,680,2.1935
10.4051,521,1.6806
10.4094,330,1.0645
10.4138,418,1.3484
10.4181,631,2.0355
10.4225,642,2.0710
10.4268,427,1.3774
10.4311,329,1.0613
10.4355,510,1.6452
10.4398,666,2.1484
10.4442,557,1.7968
10.4485,337,1.0871
10.4528,361,1.1645
10.4571,587,1.8935
10.4615,669,2.1581
10.4658,493,1.5903
10.4701,342,1.1032
10.4743,467,1.5065
10.4786,664,2.1419
10.4829,645,2.0806
10.4872,432,1.3935
10.4915,379,1.2226
10.4959,596,1.9226
10.5001,773,2.4935
10.5044,714,2.3032
10.5087,580,1.8710
10.5130,693,2.2355
10.5173,972,3.1355
10.5216,999,3.2226
10.5258,752,2.4258
10.5300,391,1.2613
10.5342,379,1.2226
10.5385,562,1.8129
10.5427,581,1.8742
10.5469,393,1.2677
10.5511,314,1.0129
10.5553,501,1.6161
10.5596,670,2.1613
10.5638,594,1.9161
10.5680,378,1.2194
10.5722,348,1.1226
10.5764,552,1.7806
10.5807,667,2.1516
10.5849,530,1.7097
10.5891,334,1.0774
10.5934,388,1.2516
10.5976,605,1.9516
10.6019,656,2.1161
10.6063,459,1.4806
10.6106,330,1.0645
10.6150,492,1.5871
10.6193,670,2.1613
10.6236,609,1.9645
10.6279,393,1.2677
10.6322,363,1.1710
10.6365,574,1.8516
10.6407,690,2.2258
10.6450,546,1.7613
10.6492,357,1.1516
10.6535,417,1.3452
10.6577,628,2.0258
10.6620,673,2.1710
10.6662,482,1.5548
10.6704,345,1.1129
10.6746,482,1.5548
10.6789,674,2.1742
10.6831,642,2.0710
10.6873,431,1.3903
10.6915,363,1.1710
10.6957,554,1.7871
10.7000,705,2.2742
10.7042,610,1.9677
10.7085,408,1.3161
10.7128,425,1.3710
10.7171,643,2.0742
10.7214,722,2.3290
10.7257,545,1.7581
10.7301,388,1.2516
10.7345,521,1.6806
10.7388,722,2.3290
10.7432,690,2.2258
10.7475,470,1.5161
10.7518,413,1.3323
10.7560,617,1.9903
10.7603,758,2.4452
10.7646,635,2.0484
10.7689,435,1.4032
10.7731,474,1.5290
10.7774,686,2.2129
10.7817,744,2.4000
10.7860,552,1.7806
10.7902,392,1.2645
10.7945,516,1.6645
10.7988,705,2.2742
10.8031,676,2.1806
10.8073,458,1.4774
10.8115,376,1.2129
10.8157,554,1.7871
10.8199,696,2.2452
10.8241,604,1.9484
10.8284,388,1.2516
10.8326,381,1.2290
10.8368,583,1.8806
10.8410,677,2.1839
10.8453,524,1.6903
10.8495,342,1.1032
10.8537,416,1.3419
10.8579,625,2.0161
10.8621,660,2.1290
10.8664,461,1.4871
10.8706,328,1.0581
10.8748,469,1.5129
10.8790,659,2.1258
10.8833,627,2.0226
10.8875,413,1.3323
10.8917,349,1.1258
10.8960,545,1.7581
10.9003,684,2.2065
10.9046,569,1.8355
10.9089,369,1.1903
10.9131,402,1.2968
10.9173,619,1.9968
10.9215,692,2.2323
10.9257,517,1.6677
10.9300,353,1.1387
10.9343,467,1.5065
10.9387,668,2.1548
10.9431,656,2.1161
10.9473,442,1.4258
10.9516,371,1.1968
10.9560,566,1.8258
10.9603,708,2.2839
10.9647,592,1.9097
10.9689,392,1.2645
10.9732,437,1.4097
10.9775,656,2.1161
10.9818,719,2.3194
10.9860,534,1.7226
10.9903,376,1.2129
10.9945,502,1.6194
10.9987,697,2.2484
11.0030,681,2.1968
11.0072,464,1.4968
11.0114,377,1.2161
11.0157,560,1.8065
11.0200,714,2.3032
11.0242,616,1.9871
11.0285,402,1.2968
11.0329,412,1.3290
11.0372,635,2.0484
11.0415,713,2.3000
11.0458,531,1.7129
11.0501,361,1.1645
11.0544,479,1.5452
11.0588,685,2.2097
11.0631,664,2.1419
11.0674,447,1.4419
11.0717,371,1.1968
11.0760,563,1.8161
11.0803,706,2.2774
11.0846,588,1.8968
11.0889,384,1.2387
11.0931,414,1.3355
11.0973,628,2.0258
11.1015,700,2.2581
11.1057,525,1.6935
11.1099,354,1.1419
11.1142,454,1.4645
11.1184,661,2.1323
11.1226,674,2.1742
11.1268,468,1.5097
11.1311,361,1.1645
11.1353,526,1.6968
11.1396,698,2.2516
11.1438,628,2.0258
11.1523,378,1.2194
11.1566,591,1.9065
11.1609,713,2.3000
11.1651,572,1.8452
11.1694,386,1.2452
11.1736,454,1.4645
11.1780,666,2.1484
11.1823,697,2.2484
11.1866,490,1.5806
11.1909,378,1.2194
11.1953,556,1.7935
11.1996,731,2.3581
11.2040,650,2.0968
11.2083,427,1.3774
11.2126,416,1.3419
11.2170,623,2.0097
11.2213,719,2.3194
11.2256,549,1.7710
11.2300,372,1.2000
11.2344,478,1.5419
11.2387,673,2.1710
11.2431,652,2.1032
11.2474,423,1.3645
11.2517,345,1.1129
11.2561,546,1.7613
11.2604,696,2.2452
11.2647,587,1.8935
11.2690,382,1.2323
11.2733,413,1.3323
11.2775,633,2.0419
11.2818,698,2.2516
11.2861,516,1.6645
11.2903,362,1.1677
11.2946,494,1.5935
11.2989,708,2.2839
11.3033,708,2.2839
11.3075,523,1.6871
11.3118,499,1.6097
11.3161,755,2.4355
11.3204,975,3.1452
11.3246,928,2.9935
11.3289,724,2.3355
11.3332,613,1.9774
11.3375,629,2.0290
11.3418,594,1.9161
11.3461,405,1.3065
11.3503,267,0.8613
11.3546,409,1.3194
11.3589,624,2.0129
11.3632,620,2.0000
11.3676,406,1.3097
11.3719,341,1.1000
11.3762,532,1.7161
11.3804,670,2.1613
11.3847,556,1.7935
11.3890,354,1.1419
11.3933,383,1.2355
11.3975,596,1.9226
11.4018,666,2.1484
11.4061,482,1.5548
11.4104,330,1.0645
11.4147,456,1.4710
11.4190,653,2.1065
11.4233,630,2.0323
11.4276,412,1.3290
11.4319,346,1.1161
11.4363,537,1.7323
11.4406,675,2.1774
11.4448,560,1.8065
11.4491,359,1.1581
11.4535,398,1.2839
11.4578,611,1.9710
11.4621,665,2.1452
11.4664,476,1.5355
11.4707,329,1.0613
11.4750,467,1.5065
11.4793,653,2.1065
11.4836,614,1.9806
11.4879,396,1.2774
11.4922,347,1.1194
11.4964,547,1.7645
11.5007,673,2.1710
11.5049,551,1.7774
11.5092,356,1.1484
11.5135,405,1.3065
11.5179,624,2.0129
11.5222,673,2.1710
11.5265,483,1.5581
11.5308,343,1.1065
11.5350,483,1.5581
11.5393,670,2.1613
11.5435,641,2.0677
11.5478,429,1.3839
11.5520,365,1.1774
11.5563,561,1.8097
11.5607,697,2.2484
11.5650,573,1.8484
11.5692,374,1.2065
11.5735,411,1.3258
11.5777,626,2.0194
11.5820,691,2.2290
11.5862,510,1.6452
11.5904,355,1.1452
11.5946,467,1.5065
11.5989,659,2.1258
11.6031,649,2.0935
11.6073,435,1.4032
11.6115,333,1.0742
11.6157,498,1.6065
11.6199,654,2.1097
11.6241,572,1.8452
11.6284,354,1.1419
11.6326,328,1.0581
11.6369,534,1.7226
11.6412,646,2.0839
11.6455,499,1.6097
11.6498,318,1.0258
11.6541,396,1.2774
11.6584,599,1.9323
11.6627,612,1.9742
11.6671,400,1.2903
11.6714,292,0.9419
11.6757,466,1.5032
11.6800,629,2.0290
11.6842,551,1.7774
11.6885,339,1.0935
11.6927,320,1.0323
11.6970,530,1.7097
11.7014,636,2.0516
11.7057,474,1.5290
11.7101,295,0.9516
11.7146,407,1.3129
11.7190,614,1.9806
11.7235,596,1.9226
11.7279,377,1.2161
11.7323,325,1.0484
11.7368,527,1.7000
11.7412,640,2.0645
11.7456,484,1.5613
11.7500,304,0.9806
11.7544,402,1.2968
11.7589,617,1.9903
11.7633,612,1.9742
11.7677,392,1.2645
11.7720,321,1.0355
11.7764,517,1.6677
11.7808,646,2.0839
11.7851,516,1.6645
11.7895,318,1.0258
11.7939,382,1.2323
11.7983,599,1.9323
11.8027,626,2.0194
11.8070,414,1.3355
11.8114,296,0.9548
11.8157,469,1.5129
11.8201,634,2.0452
11.8245,551,1.7774
11.8289,345,1.1129
11.8332,366,1.1806
11.8376,584,1.8839
11.8420,659,2.1258
11.8463,474,1.5290
11.8507,329,1.0613
11.8551,467,1.5065
11.8595,655,2.1129
11.8638,608,1.9613
11.8682,387,1.2484
11.8727,357,1.1516
11.8770,566,1.8258
11.8814,669,2.1581
11.8859,505,1.6290
11.8902,333,1.0742
11.8945,439,1.4161
11.8989,650,2.0968
11.9033,643,2.0742
11.9077,427,1.3774
11.9121,356,1.1484
11.9164,552,1.7806
11.9208,690,2.2258
11.9252,561,1.8097
11.9296,367,1.1839
11.9340,428,1.3806
11.9384,631,2.0355
11.9428,652,2.1032
11.9472,443,1.4290
11.9516,338,1.0903
11.9560,513,1.6548
11.9604,677,2.1839
11.9647,581,1.8742
11.9691,369,1.1903
11.9735,394,1.2710
11.9779,611,1.9710
11.9823,672,2.1677
11.9867,476,1.5355
11.9911,344,1.1097
11.9955,503,1.6226
11.9998,678,2.1871
12.0042,604,1.9484
12.0086,383,1.2355
12.0130,378,1.2194
12.0174,592,1.9097
12.0218,680,2.1935
12.0264,491,1.5839
12.0308,345,1.1129
12.0352,486,1.5677
12.0396,668,2.1548
12.0440,621,2.0032
12.0484,418,1.3484
12.0527,409,1.3194
12.0570,644,2.0774
12.0614,803,2.5903
12.0658,718,2.3161
12.0702,621,2.0032
12.0745,791,2.5516
12.0790,993,3.2032
12.0834,858,2.7677
12.0878,428,1.3806
12.0922,246,0.7935
12.0967,450,1.4516
12.1011,605,1.9516
12.1055,493,1.5903
12.1098,325,1.0484
12.1141,408,1.3161
12.1185,621,2.0032
12.1229,633,2.0419
12.1272,424,1.3677
12.1316,321,1.0355
12.1359,496,1.6000
12.1403,658,2.1226
12.1446,567,1.8290
12.1490,355,1.1452
12.1533,361,1.1645
12.1576,569,1.8355
12.1619,652,2.1032
12.1662,479,1.5452
12.1706,323,1.0419
12.1749,445,1.4355
12.1793,636,2.0516
12.1836,612,1.9742
12.1879,390,1.2581
12.1923,327,1.0548
12.1967,524,1.6903
12.2010,656,2.1161
12.2054,525,1.6935
12.2097,334,1.0774
12.2141,402,1.2968
12.2184,615,1.9839
12.2228,641,2.0677
12.2271,434,1.4000
12.2315,322,1.0387
12.2358,490,1.5806
12.2401,652,2.1032
12.2445,575,1.8548
12.2488,354,1.1419
12.2532,358,1.1548
12.2575,570,1.8387
12.2618,659,2.1258
12.2661,493,1.5903
12.2703,329,1.0613
12.2746,431,1.3903
12.2788,636,2.0516
12.2830,655,2.1129
12.2873,457,1.4742
12.2915,348,1.1226
12.2957,508,1.6387
12.2999,680,2.1935
12.3041,623,2.0097
12.3084,409,1.3194
12.3126,369,1.1903
12.3168,569,1.8355
12.3211,698,2.2516
12.3253,577,1.8613
12.3296,380,1.2258
12.3339,423,1.3645
12.3381,630,2.0323
12.3424,679,2.1903
12.3466,493,1.5903
12.3508,343,1.1065
12.3550,459,1.4806
12.3593,639,2.0613
12.3635,615,1.9839
12.3677,400,1.2903
12.3719,311,1.0032
12.3761,480,1.5484
12.3803,631,2.0355
12.3846,546,1.7613
12.3888,341,1.1000
12.3931,331,1.0677
12.3973,535,1.7258
12.4015,642,2.0710
12.4057,500,1.6129
12.4100,320,1.0323
12.4142,381,1.2290
12.4183,585,1.8871
12.4225,629,2.0290
12.4268,436,1.4065
12.4311,303,0.9774
12.4354,446,1.4387
12.4396,629,2.0290
12.4438,595,1.9194
12.4481,381,1.2290
12.4523,320,1.0323
12.4566,509,1.6419
12.4608,650,2.0968
12.4650,548,1.7677
12.4693,348,1.1226
12.4735,367,1.1839
12.4777,574,1.8516
12.4819,660,2.1290
12.4861,501,1.6161
12.4904,333,1.0742
12.4946,427,1.3774
12.4988,626,2.0194
12.5030,642,2.0710
12.5072,442,1.4258
12.5115,328,1.0581
12.5157,478,1.5419
12.5199,650,2.0968
12.5241,602,1.9419
12.5283,391,1.2613
12.5326,344,1.1097
12.5368,539,1.7387
12.5410,666,2.1484
12.5453,545,1.7581
12.5495,348,1.1226
12.5537,380,1.2258
12.5579,587,1.8935
12.5622,657,2.1194
12.5664,490,1.5806
12.5706,331,1.0677
12.5748,435,1.4032
12.5790,632,2.0387
12.5832,642,2.0710
12.5874,441,1.4226
12.5916,332,1.0710
12.5959,489,1.5774
12.6001,657,2.1194
12.6043,608,1.9613
12.6085,403,1.3000
12.6127,368,1.1871
12.6169,563,1.8161
12.6211,686,2.2129
12.6253,563,1.8161
12.6295,366,1.1806
12.6338,399,1.2871
12.6380,601,1.9387
12.6422,668,2.1548
12.6465,490,1.5806
12.6507,335,1.0806
12.6550,447,1.4419
12.6593,638,2.0581
12.6635,631,2.0355
12.6677,429,1.3839
12.6719,340,1.0968
12.6761,513,1.6548
12.6803,671,2.1645
12.6845,594,1.9161
12.6887,379,1.2226
12.6930,358,1.1548
12.6973,570,1.8387
12.7016,692,2.2323
12.7058,554,1.7871
12.7101,371,1.1968
12.7144,445,1.4355
12.7186,650,2.0968
12.7230,674,2.1742
12.7273,470,1.5161
12.7317,355,1.1452
12.7360,524,1.6903
12.7403,686,2.2129
12.7446,611,1.9710
12.7489,390,1.2581
12.7532,375,1.2097
12.7575,580,1.8710
12.7618,678,2.1871
12.7661,518,1.6710
12.7705,350,1.1290
12.7748,454,1.4645
12.7791,658,2.1226
12.7833,664,2.1419
12.7876,456,1.4710
12.7919,356,1.1484
12.7962,528,1.7032
12.8005,685,2.2097
12.8047,610,1.9677
12.8090,427,1.3774
12.8132,436,1.4065
12.8174,672,2.1677
12.8216,832,2.6839
12.8258,756,2.4387
12.8300,651,2.1000
12.8343,775,2.5000
12.8385,975,3.1452
12.8427,874,2.8194
12.8470,483,1.5581
12.8512,240,0.7742
12.8554,367,1.1839
12.8596,578,1.8645
12.8639,575,1.8548
12.8680,382,1.2323
12.8722,320,1.0323
12.8764,506,1.6323
12.8807,658,2.1226
12.8849,565,1.8226
12.8891,363,1.1710
12.8933,359,1.1581
12.8975,567,1.8290
12.9018,662,2.1355
12.9061,505,1.6290
12.9104,328,1.0581
12.9151,440,1.4194
12.9195,632,2.0387
12.9238,606,1.9548
12.9281,388,1.2516
12.9324,319,1.0290
12.9367,513,1.6548
12.9410,656,2.1161
12.9454,544,1.7548
12.9496,350,1.1290
12.9539,387,1.2484
12.9582,591,1.9065
12.9625,649,2.0935
12.9668,467,1.5065
12.9710,321,1.0355
12.9752,446,1.4387
12.9794,635,2.0484
12.9837,627,2.0226
12.9879,422,1.3613
12.9921,333,1.0742
12.9964,510,1.6452
13.0007,668,2.1548
13.0050,574,1.8516
13.0093,373,1.2032
13.0135,384,1.2387
13.0178,595,1.9194
13.0220,684,2.2065
13.0262,527,1.7000
13.0305,358,1.1548
13.0347,446,1.4387
13.0389,653,2.1065
13.0431,679,2.1903
13.0474,481,1.5516
13.0517,370,1.1935
13.0560,534,1.7226
13.0603,704,2.2710
13.0646,636,2.0516
13.0689,422,1.3613
13.0732,405,1.3065
13.0775,615,1.9839
13.0818,720,2.3226
13.0861,569,1.8355
13.0904,394,1.2710
13.0947,483,1.5581
13.0990,687,2.2161
13.1034,692,2.2323
13.1076,481,1.5516
13.1119,371,1.1968
13.1161,530,1.7097
13.1204,685,2.2097
13.1246,607,1.9581
13.1289,389,1.2548
13.1332,367,1.1839
13.1375,572,1.8452
13.1418,672,2.1677
13.1461,523,1.6871
13.1503,344,1.1097
13.1546,424,1.3677
13.1588,629,2.0290
13.1631,657,2.1194
13.1673,461,1.4871
13.1715,338,1.0903
13.1757,483,1.5581
13.1799,665,2.1452
13.1841,624,2.0129
13.1884,412,1.3290
13.1926,351,1.1323
13.1968,543,1.7516
13.2011,682,2.2000
13.2053,573,1.8484
13.2095,369,1.1903
13.2138,396,1.2774
13.2181,611,1.9710
13.2223,689,2.2226
13.2266,519,1.6742
13.2308,363,1.1710
13.2351,471,1.5194
13.2393,667,2.1516
13.2436,665,2.1452
13.2479,454,1.4645
13.2523,372,1.2000
13.2566,563,1.8161
13.2610,713,2.3000
13.2653,604,1.9484
13.2696,401,1.2935
13.2739,428,1.3806
13.2782,634,2.0452
13.2825,711,2.2935
13.2867,538,1.7355
13.2910,381,1.2290
13.2952,492,1.5871
13.2994,687,2.2161
13.3037,682,2.2000
13.3079,473,1.5258
13.3121,378,1.2194
13.3163,549,1.7710
13.3205,711,2.2935
13.3247,639,2.0613
13.3290,427,1.3774
13.3333,413,1.3323
13.3376,621,2.0032
13.3419,722,2.3290
13.3462,569,1.8355
13.3504,392,1.2645
13.3547,472,1.5226
13.3589,674,2.1742
13.3632,702,2.2645
13.3674,501,1.6161
13.3718,384,1.2387
13.3761,545,1.7581
13.3804,714,2.3032
13.3847,640,2.0645
13.3890,429,1.3839
13.3934,416,1.3419
13.3977,626,2.0194
13.4020,722,2.3290
13.4063,568,1.8323
13.4106,400,1.2903
13.4149,490,1.5806
13.4191,693,2.2355
13.4234,715,2.3065
13.4277,517,1.6677
13.4320,405,1.3065
13.4363,568,1.8323
13.4405,732,2.3613
13.4447,663,2.1387
13.4489,447,1.4419
13.4532,407,1.3129
13.4574,591,1.9065
13.4616,692,2.2323
13.4659,551,1.7774
13.4701,359,1.1581
13.4743,405,1.3065
13.4785,609,1.9645
13.4827,660,2.1290
13.4870,481,1.5516
13.4912,340,1.0968
13.4954,468,1.5097
13.4997,656,2.1161
13.5039,642,2.0710
13.5082,427,1.3774
13.5124,345,1.1129
13.5166,527,1.7000
13.5208,677,2.1839
13.5251,597,1.9258
13.5293,410,1.3226
13.5335,435,1.4032
13.5378,681,2.1968
13.5421,824,2.6581
13.5464,740,2.3871
13.5507,648,2.0903
13.5550,808,2.6065
13.5593,996,3.2129
13.5636,854,2.7548
13.5679,447,1.4419
13.5723,269,0.8677
13.5766,462,1.4903
13.5809,640,2.0645
13.5852,564,1.8194
13.5895,370,1.1935
13.5938,393,1.2677
13.5981,609,1.9645
13.6024,686,2.2129
13.6067,512,1.6516
13.6110,349,1.1258
13.6152,458,1.4774
13.6195,658,2.1226
13.6239,644,2.0774
13.6281,439,1.4161
13.6324,363,1.1710
13.6368,553,1.7839
13.6411,702,2.2645
13.6454,590,1.9032
13.6497,390,1.2581
13.6539,414,1.3355
13.6581,626,2.0194
13.6624,704,2.2710
13.6667,534,1.7226
13.6709,376,1.2129
13.6751,485,1.5645
13.6793,685,2.2097
13.6836,698,2.2516
13.6878,501,1.6161
13.6920,404,1.3032
13.6962,573,1.8484
13.7004,746,2.4065
13.7046,689,2.2226
13.7089,479,1.5452
13.7131,451,1.4548
13.7173,649,2.0935
13.7216,769,2.4806
13.7258,638,2.0581
13.7300,444,1.4323
13.7343,494,1.5935
13.7385,707,2.2806
13.7427,774,2.4968
13.7469,598,1.9290
13.7511,446,1.4387
13.7554,566,1.8258
13.7596,763,2.4613
13.7638,762,2.4581
13.7680,550,1.7742
13.7723,454,1.4645
13.7765,625,2.0161
13.7808,783,2.5258
13.7851,697,2.2484
13.7894,488,1.5742
13.7937,489,1.5774
13.7980,704,2.2710
13.8024,788,2.5419
13.8067,616,1.9871
13.8110,447,1.4419
13.8153,555,1.7903
13.8196,747,2.4097
13.8239,730,2.3548
13.8282,508,1.6387
13.8326,425,1.3710
13.8369,604,1.9484
13.8412,731,2.3581
13.8455,602,1.9419
13.8497,387,1.2484
13.8540,406,1.3097
13.8583,618,1.9935
13.8626,692,2.2323
13.8669,509,1.6419
13.8712,349,1.1258
13.8755,470,1.5161
13.8798,663,2.1387
13.8841,641,2.0677
13.8884,429,1.3839
13.8926,358,1.1548
13.8969,545,1.7581
13.9012,682,2.2000
13.9055,571,1.8419
13.9097,369,1.1903
13.9139,389,1.2548
13.9181,595,1.9194
13.9223,676,2.1806
13.9266,507,1.6355
13.9308,337,1.0871
13.9350,431,1.3903
13.9392,625,2.0161
13.9434,640,2.0645
13.9476,444,1.4323
13.9519,330,1.0645
13.9561,485,1.5645
13.9603,657,2.1194
13.9645,608,1.9613
13.9688,394,1.2710
13.9731,353,1.1387
13.9773,546,1.7613
13.9815,671,2.1645
13.9857,553,1.7839
13.9899,355,1.1452
13.9941,383,1.2355
13.9983,585,1.8871
14.0025,652,2.1032
14.0068,485,1.5645
14.0110,327,1.0548
14.0153,439,1.4161
14.0196,634,2.0452
14.0239,619,1.9968
14.0282,406,1.3097
14.0326,325,1.0484
14.0370,515,1.6613
14.0413,652,2.1032
14.0456,540,1.7419
14.0499,340,1.0968
14.0542,375,1.2097
14.0585,586,1.8903
14.0628,644,2.0774
14.0671,461,1.4871
14.0713,311,1.0032
14.0756,433,1.3968
14.0798,625,2.0161
14.0840,608,1.9613
14.0882,395,1.2742
14.0924,308,0.9935
14.0967,485,1.5645
14.1009,642,2.0710
14.1051,557,1.7968
14.1094,348,1.1226
14.1137,341,1.1000
14.1179,544,1.7548
14.1221,641,2.0677
14.1264,488,1.5742
14.1306,308,0.9935
14.1349,389,1.2548
14.1392,599,1.9323
14.1435,622,2.0065
14.1479,414,1.3355
14.1522,308,0.9935
14.1564,476,1.5355
14.1607,641,2.0677
14.1651,563,1.8161
14.1694,347,1.1194
14.1737,345,1.1129
14.1780,560,1.8065
14.1824,651,2.1000
14.1867,477,1.5387
14.1910,306,0.9871
14.1953,409,1.3194
14.1996,605,1.9516
14.2039,599,1.9323
14.2082,380,1.2258
14.2125,283,0.9129
14.2169,456,1.4710
14.2214,590,1.9032
14.2258,463,1.4935
14.2302,261,0.8419
14.2347,326,1.0516
14.2391,543,1.7516
14.2436,562,1.8129
14.2481,351,1.1323
14.2525,267,0.8613
14.2569,463,1.4935
14.2614,610,1.9677
14.2658,488,1.5742
14.2702,292,0.9419
14.2745,342,1.1032
14.2789,564,1.8194
14.2833,619,1.9968
14.2877,436,1.4065
14.2920,356,1.1484
14.2964,584,1.8839
14.3008,830,2.6774
14.3052,828,2.6710
14.3096,659,2.1258
14.3139,604,1.9484
14.3183,629,2.0290
14.3227,533,1.7194
14.3270,310,1.0000
14.3314,170,0.5484
14.3357,326,1.0516
14.3401,543,1.7516
14.3445,525,1.6935
14.3489,309,0.9968
14.3533,267,0.8613
14.3576,471,1.5194
14.3620,589,1.9000
14.3664,441,1.4226
14.3707,257,0.8290
14.3751,347,1.1194
14.3795,558,1.8000
14.3839,564,1.8194
14.3883,356,1.1484
14.3926,273,0.8806
14.3970,460,1.4839
14.4014,602,1.9419
14.4057,486,1.5677
14.4101,287,0.9258
14.4145,338,1.0903
14.4189,560,1.8065
14.4232,603,1.9452
14.4276,404,1.3032
14.4319,283,0.9129
14.4363,447,1.4419
14.4407,621,2.0032
14.4451,548,1.7677
14.4495,337,1.0871
14.4539,342,1.1032
14.4583,562,1.8129
14.4627,641,2.0677
14.4672,455,1.4677
14.4716,308,0.9935
14.4760,453,1.4613
14.4804,640,2.0645
14.4847,593,1.9129
14.4891,374,1.2065
14.4936,356,1.1484
14.4981,573,1.8484
14.5026,664,2.1419
14.5070,499,1.6097
14.5113,346,1.1161
14.5157,473,1.5258
14.5200,667,2.1516
14.5244,644,2.0774
14.5288,423,1.3645
14.5333,379,1.2226
14.5377,588,1.8968
14.5420,705,2.2742
14.5464,560,1.8065
14.5508,377,1.2161
14.5551,465,1.5000
14.5595,674,2.1742
14.5639,680,2.1935
14.5682,464,1.4968
14.5726,364,1.1742
14.5770,545,1.7581
14.5814,690,2.2258
14.5858,572,1.8452
14.5902,357,1.1516
14.5946,398,1.2839
14.5990,608,1.9613
14.6034,644,2.0774
14.6077,439,1.4161
14.6121,311,1.0032
14.6165,472,1.5226
14.6209,640,2.0645
14.6253,558,1.8000
14.6297,341,1.1000
14.6341,350,1.1290
14.6385,567,1.8290
14.6429,637,2.0548
14.6473,448,1.4452
14.6517,303,0.9774
14.6561,447,1.4419
14.6605,631,2.0355
14.6649,573,1.8484
14.6692,356,1.1484
14.6736,330,1.0645
14.6783,554,1.7871
14.6827,638,2.0581
14.6870,466,1.5032
14.6914,313,1.0097
14.6957,435,1.4032
14.7001,636,2.0516
14.7044,614,1.9806
14.7088,393,1.2677
14.7132,337,1.0871
14.7175,535,1.7258
14.7219,658,2.1226
14.7262,522,1.6839
14.7306,328,1.0581
14.7349,394,1.2710
14.7393,600,1.9355
14.7436,629,2.0290
14.7479,427,1.3774
14.7522,312,1.0065
14.7566,477,1.5387
14.7609,643,2.0742
14.7652,561,1.8097
14.7695,341,1.1000
14.7739,331,1.0677
14.7782,547,1.7645
14.7826,643,2.0742
14.7869,478,1.5419
14.7915,312,1.0065
14.7958,438,1.4129
14.8002,625,2.0161
14.8046,596,1.9226
14.8089,383,1.2355
14.8132,322,1.0387
14.8176,516,1.6645
14.8219,639,2.0613
14.8263,506,1.6323
14.8306,319,1.0290
14.8349,388,1.2516
14.8393,598,1.9290
14.8436,623,2.0097
14.8480,422,1.3613
14.8523,313,1.0097
14.8566,479,1.5452
14.8609,644,2.0774
14.8652,570,1.8387
14.8695,360,1.1613
14.8738,348,1.1226
14.8781,555,1.7903
14.8824,653,2.1065
14.8867,498,1.6065
14.8909,323,1.0419
14.8952,406,1.3097
14.8995,612,1.9742
14.9038,631,2.0355
14.9081,431,1.3903
14.9123,319,1.0290
14.9166,478,1.5419
14.9209,646,2.0839
14.9253,575,1.8548
14.9296,367,1.1839
14.9339,362,1.1677
14.9382,577,1.8613
14.9425,673,2.1710
14.9468,514,1.6581
14.9511,344,1.1097
14.9554,436,1.4065
14.9597,643,2.0742
14.9639,657,2.1194
14.9682,457,1.4742
14.9725,356,1.1484
14.9767,519,1.6742
14.9810,677,2.1839
14.9853,598,1.9290
14.9896,382,1.2323
14.9939,365,1.1774
14.9982,574,1.8516
15.0025,673,2.1710
15.0072,487,1.5710
15.0198,622,2.0065
15.0242,618,1.9935
15.0286,406,1.3097
15.0330,330,1.0645
15.0373,521,1.6806
15.0416,660,2.1290
15.0459,553,1.7839
15.0502,353,1.1387
15.0545,385,1.2419
15.0587,595,1.9194
15.0630,661,2.1323
15.0673,488,1.5742
15.0715,349,1.1258
15.0757,480,1.5484
15.0800,698,2.2516
15.0842,737,2.3774
15.0884,595,1.9194
15.0926,578,1.8645
15.0968,821,2.6484
15.1010,999,3.2226
15.1052,872,2.8129
15.1095,473,1.5258
15.1137,281,0.9065
15.1179,440,1.4194
15.1222,578,1.8645
15.1265,463,1.4935
15.1308,298,0.9613
15.1352,385,1.2419
15.1395,599,1.9323
15.1438,627,2.0226
15.1481,425,1.3710
15.1524,314,1.0129
15.1567,476,1.5355
15.1610,643,2.0742
15.1653,574,1.8516
15.1695,364,1.1742
15.1738,346,1.1161
15.1781,552,1.7806
15.1824,659,2.1258
15.1868,509,1.6419
15.1911,332,1.0710
15.1953,415,1.3387
15.1996,622,2.0065
15.2039,646,2.0839
15.2081,447,1.4419
15.2124,333,1.0742
15.2167,492,1.5871
15.2210,659,2.1258
15.2253,593,1.9129
15.2295,382,1.2323
15.2339,362,1.1677
15.2382,570,1.8387
15.2426,670,2.1613
15.2470,508,1.6387
15.2513,339,1.0935
15.2556,436,1.4065
15.2600,637,2.0548
15.2643,640,2.0645
15.2685,436,1.4065
15.2728,345,1.1129
15.2771,525,1.6935
15.2814,674,2.1742
15.2857,582,1.8774
15.2901,380,1.2258
15.2943,399,1.2871
15.2987,618,1.9935
15.3031,695,2.2419
15.3074,520,1.6774
15.3117,369,1.1903
15.3161,499,1.6097
15.3204,688,2.2194
15.3246,667,2.1516
15.3289,455,1.4677
15.3332,390,1.2581
15.3375,587,1.8935
15.3418,727,2.3452
15.3460,614,1.9806
15.3504,414,1.3355
15.3547,450,1.4516
15.3590,657,2.1194
15.3633,710,2.2903
15.3676,523,1.6871
15.3719,374,1.2065
15.3761,498,1.6065
15.3804,679,2.1903
15.3847,645,2.0806
15.3889,428,1.3806
15.3932,357,1.1516
15.3976,540,1.7419
15.4019,669,2.1581
15.4062,544,1.7548
15.4105,344,1.1097
15.4148,388,1.2516
15.4191,598,1.9290
15.4234,652,2.1032
15.4277,465,1.5000
15.4321,329,1.0613
15.4364,472,1.5226
15.4407,652,2.1032
15.4450,607,1.9581
15.4493,393,1.2677
15.4536,348,1.1226
15.4578,542,1.7484
15.4621,664,2.1419
15.4663,539,1.7387
15.4706,345,1.1129
15.4748,385,1.2419
15.4791,589,1.9000
15.4833,648,2.0903
15.4877,463,1.4935
15.4919,320,1.0323
15.4962,452,1.4581
15.5005,634,2.0452
15.5048,602,1.9419
15.5091,390,1.2581
15.5133,331,1.0677
15.5176,524,1.6903
15.5218,662,2.1355
15.5260,558,1.8000
15.5302,357,1.1516
15.5345,382,1.2323
15.5387,590,1.9032
15.5430,669,2.1581
15.5472,502,1.6194
15.5514,335,1.0806
15.5557,434,1.4000
15.5599,638,2.0581
15.5641,657,2.1194
15.5683,459,1.4806
15.5725,350,1.1290
15.5768,506,1.6323
15.5810,677,2.1839
15.5852,624,2.0129
15.5894,414,1.3355
15.5936,374,1.2065
15.5978,566,1.8258
15.6021,692,2.2323
15.6063,576,1.8581
15.6105,384,1.2387
15.6147,419,1.3516
15.6190,623,2.0097
15.6233,684,2.2065
15.6275,511,1.6484
15.6317,358,1.1548
15.6360,472,1.5226
15.6402,667,2.1516
15.6444,665,2.1452
15.6486,462,1.4903
15.6528,371,1.1968
15.6571,542,1.7484
15.6613,704,2.2710
15.6655,630,2.0323
15.6697,419,1.3516
15.6739,393,1.2677
15.6782,595,1.9194
15.6824,706,2.2774
15.6866,567,1.8290
15.6908,379,1.2226
15.6951,436,1.4065
15.6994,647,2.0871
15.7037,687,2.2161
15.7079,501,1.6161
15.7121,367,1.1839
15.7163,509,1.6419
15.7206,695,2.2419
15.7248,668,2.1548
15.7291,455,1.4677
15.7334,388,1.2516
15.7377,576,1.8581
15.7420,708,2.2839
15.7463,599,1.9323
15.7506,410,1.3226
15.7549,449,1.4484
15.7591,649,2.0935
15.7634,700,2.2581
15.7677,513,1.6548
15.7720,364,1.1742
15.7763,495,1.5968
15.7806,682,2.2000
15.7849,649,2.0935
15.7891,435,1.4032
15.7934,375,1.2097
15.7977,565,1.8226
15.8020,697,2.2484
15.8063,579,1.8677
15.8105,381,1.2290
15.8148,412,1.3290
15.8191,621,2.0032
15.8234,685,2.2097
15.8277,511,1.6484
15.8320,367,1.1839
15.8363,493,1.5903
15.8405,677,2.1839
15.8448,652,2.1032
15.8491,441,1.4226
15.8534,383,1.2355
15.8576,588,1.8968
15.8619,746,2.4065
15.8662,665,2.1452
15.8705,517,1.6677
15.8747,618,1.9935
15.8790,908,2.9290
15.8833,997,3.2161
15.8876,824,2.6581
15.8919,503,1.6226
15.8961,433,1.3968
15.9004,554,1.7871
15.9047,549,1.7710
15.9090,361,1.1645
15.9134,310,1.0000
15.9177,517,1.6677
15.9220,661,2.1323
15.9264,543,1.7516
15.9308,347,1.1194
15.9351,396,1.2774
15.9393,600,1.9355
15.9436,650,2.0968
15.9479,464,1.4968
15.9522,328,1.0581
15.9565,466,1.5032
15.9608,647,2.0871
15.9651,608,1.9613
15.9694,397,1.2806
15.9736,345,1.1129
15.9779,538,1.7355
15.9822,670,2.1613
15.9865,550,1.7742
15.9907,355,1.1452
15.9950,397,1.2806
15.9993,603,1.9452
16.0036,662,2.1355
16.0079,477,1.5387
16.0121,338,1.0903
16.0164,475,1.5323
16.0207,660,2.1290
16.0250,629,2.0290
16.0293,417,1.3452
16.0336,359,1.1581
16.0378,552,1.7806
16.0421,686,2.2129
16.0464,566,1.8258
16.0506,368,1.1871
16.0549,406,1.3097
16.0592,613,1.9774
16.0634,679,2.1903
16.0677,496,1.6000
16.0720,353,1.1387
16.0763,480,1.5484
16.0806,668,2.1548
16.0849,647,2.0871
16.0892,440,1.4194
16.0935,381,1.2290
16.0978,574,1.8516
16.1020,712,2.2968
16.1063,602,1.9419
16.1106,406,1.3097
16.1149,439,1.4161
16.1191,654,2.1097
16.1234,721,2.3258
16.1277,541,1.7452
16.1319,386,1.2452
16.1362,506,1.6323
16.1405,700,2.2581
16.1448,682,2.2000
16.1490,465,1.5000
16.1533,385,1.2419
16.1576,567,1.8290
16.1618,710,2.2903
16.1661,605,1.9516
16.1703,397,1.2806
16.1746,403,1.3000
16.1789,605,1.9516
16.1831,679,2.1903
16.1874,500,1.6129
16.1917,326,1.0516
16.1959,422,1.3613
16.2002,620,2.0000
16.2045,626,2.0194
16.2087,420,1.3548
16.2130,325,1.0484
16.2174,500,1.6129
16.2217,656,2.1161
16.2259,568,1.8323
16.2303,359,1.1581
16.2347,370,1.1935
16.2390,578,1.8645
16.2432,656,2.1161
16.2475,485,1.5645
16.2519,329,1.0613
16.2562,448,1.4452
16.2605,643,2.0742
16.2648,629,2.0290
16.2690,418,1.3484
16.2733,339,1.0935
16.2776,519,1.6742
16.2819,670,2.1613
16.2861,573,1.8484
16.2904,371,1.1968
16.2947,389,1.2548
16.2990,597,1.9258
16.3033,668,2.1548
16.3076,496,1.6000
16.3120,339,1.0935
16.3163,465,1.5000
16.3206,660,2.1290
16.3249,646,2.0839
16.3291,439,1.4161
16.3334,364,1.1742
16.3376,541,1.7452
16.3417,689,2.2226
16.3459,603,1.9452
16.3501,396,1.2774
16.3544,386,1.2452
16.3585,590,1.9032
16.3627,696,2.2452
16.3669,556,1.7935
16.3711,370,1.1935
16.3754,427,1.3774
16.3796,634,2.0452
16.3838,683,2.2032
16.3880,501,1.6161
16.3922,359,1.1581
16.3965,487,1.5710
16.4007,676,2.1806
16.4049,658,2.1226
16.4091,446,1.4387
16.4133,366,1.1806
16.4176,547,1.7645
16.4218,702,2.2645
16.4260,616,1.9871
16.4302,410,1.3226
16.4345,411,1.3258
16.4387,618,1.9935
16.4434,712,2.2968
16.4477,538,1.7355
16.4519,379,1.2226
16.4562,478,1.5419
16.4603,665,2.1452
16.4645,677,2.1839
16.4687,484,1.5613
16.4730,388,1.2516
16.4773,565,1.8226
16.4816,728,2.3484
16.4859,651,2.1000
16.4902,434,1.4000
16.4945,429,1.3839
16.4988,637,2.0548
16.5031,727,2.3452
16.5075,562,1.8129
16.5118,391,1.2613
16.5162,492,1.5871
16.5205,683,2.2032
16.5248,671,2.1645
16.5291,458,1.4774
16.5334,376,1.2129
16.5377,565,1.8226
16.5420,713,2.3000
16.5463,605,1.9516
16.5506,400,1.2903
16.5549,421,1.3581
16.5591,631,2.0355
16.5635,704,2.2710
16.5678,526,1.6968
16.5721,374,1.2065
16.5764,492,1.5871
16.5807,689,2.2226
16.5850,683,2.2032
16.5893,490,1.5806
16.5936,441,1.4226
16.5979,670,2.1613
16.6022,868,2.8000
16.6065,831,2.6806
16.6108,701,2.2613
16.6151,772,2.4903
16.6194,910,2.9355
16.6236,788,2.5419
16.6278,453,1.4613
16.6321,257,0.8290
16.6363,385,1.2419
16.6405,603,1.9452
16.6448,618,1.9935
16.6490,423,1.3645
16.6532,337,1.0871
16.6574,512,1.6516
16.6617,672,2.1677
16.6659,595,1.9194
16.6701,384,1.2387
16.6743,363,1.1710
16.6786,567,1.8290
16.6828,673,2.1710
16.6870,537,1.7323
16.6912,354,1.1419
16.6954,411,1.3258
16.6996,617,1.9903
16.7039,665,2.1452
16.7081,470,1.5161
16.7124,329,1.0613
16.7167,473,1.5258
16.7210,661,2.1323
16.7253,624,2.0129
16.7296,408,1.3161
16.7339,358,1.1548
16.7382,558,1.8000
16.7425,685,2.2097
16.7468,560,1.8065
16.7511,368,1.1871
16.7553,408,1.3161
16.7595,612,1.9742
16.7637,673,2.1710
16.7679,500,1.6129
16.7721,349,1.1258
16.7763,464,1.4968
16.7806,661,2.1323
16.7848,657,2.1194
16.7890,450,1.4516
16.7932,358,1.1548
16.7974,530,1.7097
16.8016,697,2.2484
16.8059,629,2.0290
16.8101,423,1.3645
16.8143,398,1.2839
16.8185,601,1.9387
16.8227,717,2.3129
16.8270,582,1.8774
16.8312,399,1.2871
16.8354,455,1.4677
16.8397,664,2.1419
16.8439,713,2.3000
16.8481,523,1.6871
16.8524,378,1.2194
16.8566,503,1.6226
16.8608,691,2.2290
16.8650,679,2.1903
16.8692,469,1.5129
16.8734,386,1.2452
16.8777,559,1.8032
16.8819,706,2.2774
16.8862,613,1.9774
16.8904,401,1.2935
16.8946,393,1.2677
16.8988,591,1.9065
16.9031,684,2.2065
16.9073,527,1.7000
16.9115,342,1.1032
16.9157,407,1.3129
16.9199,605,1.9516
16.9241,641,2.0677
16.9284,448,1.4452
16.9326,317,1.0226
16.9369,455,1.4677
16.9411,633,2.0419
16.9453,600,1.9355
16.9495,390,1.2581
16.9537,325,1.0484
16.9580,509,1.6419
16.9622,650,2.0968
16.9665,548,1.7677
16.9707,347,1.1194
16.9750,367,1.1839
16.9792,575,1.8548
16.9835,651,2.1000
16.9877,481,1.5516
16.9920,316,1.0194
16.9962,424,1.3677
17.0005,625,2.0161
17.0048,628,2.0258
17.0091,417,1.3452
17.0134,325,1.0484
17.0178,510,1.6452
17.0222,657,2.1194
17.0265,556,1.7935
17.0308,351,1.1323
17.0351,373,1.2032
17.0393,582,1.8774
17.0436,649,2.0935
17.0479,467,1.5065
17.0522,312,1.0065
17.0564,427,1.3774
17.0606,620,2.0000
17.0649,616,1.9871
17.0691,407,1.3129
17.0733,312,1.0065
17.0776,484,1.5613
17.0818,644,2.0774
17.0861,563,1.8161
17.0903,352,1.1355
17.0945,337,1.0871
17.0987,534,1.7226
17.1029,640,2.0645
17.1072,495,1.5968
17.1114,307,0.9903
17.1157,371,1.1968
17.1200,583,1.8806
17.1244,613,1.9774
17.1288,402,1.2968
17.1332,292,0.9419
17.1375,465,1.5000
17.1420,631,2.0355
17.1464,528,1.7032
17.1509,316,1.0194
17.1553,351,1.1323
17.1597,569,1.8355
17.1641,616,1.9871
17.1685,417,1.3452
17.1729,290,0.9355
17.1774,456,1.4710
17.1819,623,2.0097
17.1863,528,1.7032
17.1908,318,1.0258
17.1951,347,1.1194
17.1997,566,1.8258
17.2042,611,1.9710
17.2086,411,1.3258
17.2130,287,0.9258
17.2175,451,1.4548
17.2218,615,1.9839
17.2262,533,1.7194
17.2305,327,1.0548
17.2349,339,1.0935
17.2392,553,1.7839
17.2437,631,2.0355
17.2480,448,1.4452
17.2524,293,0.9452
17.2568,425,1.3710
17.2611,617,1.9903
17.2655,585,1.8871
17.2699,377,1.2161
17.2743,333,1.0742
17.2786,530,1.7097
17.2830,639,2.0613
17.2874,476,1.5355
17.2918,296,0.9548
17.2961,384,1.2387
17.3005,589,1.9000
17.3048,591,1.9065
17.3092,376,1.2129
17.3135,286,0.9226
17.3179,471,1.5194
17.3223,619,1.9968
17.3266,510,1.6452
17.3309,306,0.9871
17.3353,338,1.0903
17.3396,553,1.7839
17.3440,612,1.9742
17.3484,421,1.3581
17.3528,284,0.9161
17.3572,436,1.4065
17.3615,618,1.9935
17.3659,558,1.8000
17.3703,361,1.1645
17.3746,370,1.1935
17.3790,605,1.9516
17.3833,749,2.4161
17.3877,657,2.1194
17.3921,571,1.8419
17.3965,756,2.4387
17.4008,981,3.1645
17.4052,873,2.8161
17.4096,439,1.4161
17.4141,236,0.7613
17.4185,421,1.3581
17.4229,573,1.8484
17.4272,458,1.4774
17.4316,293,0.9452
17.4359,376,1.2129
17.4403,591,1.9065
17.4447,609,1.9645
17.4491,399,1.2871
17.4535,302,0.9742
17.4578,483,1.5581
17.4622,639,2.0613
17.4666,540,1.7419
17.4710,336,1.0839
17.4754,369,1.1903
17.4797,579,1.8677
17.4841,632,2.0387
17.4885,438,1.4129
17.4929,308,0.9935
17.4975,478,1.5419
17.5019,648,2.0903
17.5063,563,1.8161
17.5107,354,1.1419
17.5151,369,1.1903
17.5194,585,1.8871
17.5238,656,2.1161
17.5282,471,1.5194
17.5325,323,1.0419
17.5369,456,1.4710
17.5413,640,2.0645
17.5456,603,1.9452
17.5500,386,1.2452
17.5544,351,1.1323
17.5588,561,1.8097
17.5632,669,2.1581
17.5677,507,1.6355
17.5721,340,1.0968
17.5765,452,1.4581
17.5808,656,2.1161
17.5852,646,2.0839
17.5896,434,1.4000
17.5940,368,1.1871
17.5984,569,1.8355
17.6027,700,2.2581
17.6071,576,1.8581
17.6114,384,1.2387
17.6159,450,1.4516
17.6203,663,2.1387
17.6246,685,2.2097
17.6290,476,1.5355
17.6334,375,1.2097
17.6378,553,1.7839
17.6422,713,2.3000
17.6466,611,1.9710
17.6510,404,1.3032
17.6554,432,1.3935
17.6597,644,2.0774
17.6640,703,2.2677
17.6684,513,1.6548
17.6727,364,1.1742
17.6770,494,1.5935
17.6814,673,2.1710
17.6857,624,2.0129
17.6901,406,1.3097
17.6944,365,1.1774
17.6988,564,1.8194
17.7031,675,2.1774
17.7075,526,1.6968
17.7118,341,1.1000
17.7162,423,1.3645
17.7205,625,2.0161
17.7249,639,2.0613
17.7292,430,1.3871
17.7336,334,1.0774
17.7379,514,1.6581
17.7423,661,2.1323
17.7466,559,1.8032
17.7509,353,1.1387
17.7553,376,1.2129
17.7596,591,1.9065
17.7640,660,2.1290
17.7683,473,1.5258
17.7727,323,1.0419
17.7770,457,1.4742
17.7814,644,2.0774
17.7857,606,1.9548
17.7900,395,1.2742
17.7943,351,1.1323
17.7987,553,1.7839
17.8031,670,2.1613
17.8074,524,1.6903
17.8118,339,1.0935
17.8161,419,1.3516
17.8205,627,2.0226
17.8248,641,2.0677
17.8292,437,1.4097
17.8335,336,1.0839
17.8379,515,1.6613
17.8422,672,2.1677
17.8466,575,1.8548
17.8509,367,1.1839
17.8552,381,1.2290
17.8596,588,1.8968
17.8639,659,2.1258
17.8682,478,1.5419
17.8726,328,1.0581
17.8769,457,1.4742
17.8812,648,2.0903
17.8855,623,2.0097
17.8898,411,1.3258
17.8941,345,1.1129
17.8984,534,1.7226
17.9027,668,2.1548
17.9070,550,1.7742
17.9113,354,1.1419
17.9155,394,1.2710
17.9198,603,1.9452
17.9240,668,2.1548
17.9282,490,1.5806
17.9324,337,1.0871
17.9367,448,1.4452
17.9409,636,2.0516
17.9451,631,2.0355
17.9493,426,1.3742
17.9535,330,1.0645
17.9578,500,1.6129
17.9620,662,2.1355
17.9662,593,1.9129
17.9704,383,1.2355
17.9746,359,1.1581
17.9789,552,1.7806
17.9831,662,2.1355
17.9873,524,1.6903
17.9916,341,1.1000
17.9959,407,1.3129
18.0002,617,1.9903
18.0045,657,2.1194
18.0088,456,1.4710
18.0132,335,1.0806
18.0175,495,1.5968
18.0218,666,2.1484
18.0260,608,1.9613
18.0302,404,1.3032
18.0345,370,1.1935
18.0388,572,1.8452
18.0431,693,2.2355
18.0473,558,1.8000
18.0516,375,1.2097
18.0558,434,1.4000
18.0601,638,2.0581
18.0644,683,2.2032
18.0687,492,1.5871
18.0731,373,1.2032
18.0774,530,1.7097
18.0817,695,2.2419
18.0860,630,2.0323
18.0903,411,1.3258
18.0946,373,1.2032
18.0989,574,1.8516
18.1033,688,2.2194
18.1076,538,1.7355
18.1119,356,1.1484
18.1161,433,1.3968
18.1204,637,2.0548
18.1247,658,2.1226
18.1290,459,1.4806
18.1332,345,1.1129
18.1375,496,1.6000
18.1417,663,2.1387
18.1460,605,1.9516
18.1502,390,1.2581
18.1544,351,1.1323
18.1586,546,1.7613
18.1629,672,2.1677
18.1671,553,1.7839
18.1713,358,1.1548
18.1755,397,1.2806
18.1797,620,2.0000
18.1840,712,2.2968
18.1882,579,1.8677
18.1924,480,1.5484
18.1966,667,2.1516
18.2009,943,3.0419
18.2051,988,3.1871
18.2097,738,2.3806
18.2140,479,1.5452
18.2183,486,1.5677
18.2226,571,1.8419
18.2269,469,1.5129
18.2315,291,0.9387
18.2358,358,1.1548
18.2401,582,1.8774
18.2443,642,2.0710
18.2487,454,1.4645
18.2531,317,1.0226
18.2574,465,1.5000
18.2616,643,2.0742
18.2659,593,1.9129
18.2702,385,1.2419
18.2745,339,1.0935
18.2786,531,1.7129
18.2829,660,2.1290
18.2871,545,1.7581
18.2913,347,1.1194
18.2955,375,1.2097
18.2997,585,1.8871
18.3039,662,2.1355
18.3082,491,1.5839
18.3125,334,1.0774
18.3168,453,1.4613
18.3211,652,2.1032
18.3254,636,2.0516
18.3297,424,1.3677
18.3341,347,1.1194
18.3384,532,1.7161
18.3426,674,2.1742
18.3470,565,1.8226
18.3513,363,1.1710
18.3556,394,1.2710
18.3598,600,1.9355
18.3641,669,2.1581
18.3684,489,1.5774
18.3727,334,1.0774
18.3769,455,1.4677
18.3811,649,2.0935
18.3854,639,2.0613
18.3896,432,1.3935
18.3939,349,1.1258
18.3982,528,1.7032
18.4025,684,2.2065
18.4067,592,1.9097
18.4110,392,1.2645
18.4152,396,1.2774
18.4194,605,1.9516
18.4236,703,2.2677
18.4279,545,1.7581
18.4321,375,1.2097
18.4363,464,1.4968
18.4405,672,2.1677
18.4448,702,2.2645
18.4490,505,1.6290
18.4533,384,1.2387
18.4575,544,1.7548
18.4617,722,2.3290
18.4660,671,2.1645
18.4703,450,1.4516
18.4746,408,1.3161
18.4789,606,1.9548
18.4832,715,2.3065
18.4875,572,1.8452
18.4918,384,1.2387
18.4961,447,1.4419
18.5005,646,2.0839
18.5048,669,2.1581
18.5091,459,1.4806
18.5135,346,1.1161
18.5178,515,1.6613
18.5222,677,2.1839
18.5265,590,1.9032
18.5309,378,1.2194
18.5353,381,1.2290
18.5397,592,1.9097
18.5440,677,2.1839
18.5483,504,1.6258
18.5526,346,1.1161
18.5570,467,1.5065
18.5613,661,2.1323
18.5656,638,2.0581
18.5700,427,1.3774
18.5743,369,1.1903
18.5786,560,1.8065
18.5828,696,2.2452
18.5871,585,1.8871
18.5914,387,1.2484
18.5957,426,1.3742
18.6000,638,2.0581
18.6042,702,2.2645
18.6085,519,1.6742
18.6128,368,1.1871
18.6171,496,1.6000
18.6213,687,2.2161
18.6256,666,2.1484
18.6300,454,1.4645
18.6343,397,1.2806
18.6386,589,1.9000
18.6428,721,2.3258
18.6471,606,1.9548
18.6514,411,1.3258
18.6557,447,1.4419
18.6600,654,2.1097
18.6642,716,2.3097
18.6685,538,1.7355
18.6728,391,1.2613
18.6770,514,1.6581
18.6813,700,2.2581
18.6856,681,2.1968
18.6899,471,1.5194
18.6941,398,1.2839
18.6985,587,1.8935
18.7028,730,2.3548
18.7071,623,2.0097
18.7113,424,1.3677
18.7156,449,1.4484
18.7199,652,2.1032
18.7242,723,2.3323
18.7284,553,1.7839
18.7327,392,1.2645
18.7370,505,1.6290
18.7413,702,2.2645
18.7456,696,2.2452
18.7498,496,1.6000
18.7541,409,1.3194
18.7584,577,1.8613
18.7626,720,2.3226
18.7669,633,2.0419
18.7713,430,1.3871
18.7756,440,1.4194
18.7800,641,2.0677
18.7842,724,2.3355
18.7885,567,1.8290
18.7927,407,1.3129
18.7969,494,1.5935
18.8011,691,2.2290
18.8053,718,2.3161
18.8096,534,1.7226
18.8138,424,1.3677
18.8180,578,1.8645
18.8223,743,2.3968
18.8265,683,2.2032
18.8308,470,1.5161
18.8350,435,1.4032
18.8393,631,2.0355
18.8435,749,2.4161
18.8477,627,2.0226
18.8520,437,1.4097
18.8562,476,1.5355
18.8604,675,2.1774
18.8646,743,2.3968
18.8689,575,1.8548
18.8731,423,1.3645
18.8773,535,1.7258
18.8816,721,2.3258
18.8858,709,2.2871
18.8901,499,1.6097
18.8943,407,1.3129
18.8985,570,1.8387
18.9028,716,2.3097
18.9070,633,2.0419
18.9112,428,1.3806
18.9154,413,1.3323
18.9197,610,1.9677
18.9239,713,2.3000
18.9281,569,1.8355
18.9323,386,1.2452
18.9366,452,1.4581
18.9408,655,2.1129
18.9450,695,2.2419
18.9493,507,1.6355
18.9535,369,1.1903
18.9577,502,1.6194
18.9620,684,2.2065
18.9662,659,2.1258
18.9704,466,1.5032
18.9746,419,1.3516
18.9788,623,2.0097
18.9831,803,2.5903
18.9874,767,2.4742
18.9916,641,2.0677
18.9959,736,2.3742
19.0002,987,3.1839
19.0045,988,3.1871
19.0087,681,2.1968
19.0129,346,1.1161
19.0171,381,1.2290
19.0213,580,1.8710
19.0255,617,1.9903
19.0297,436,1.4065
19.0340,337,1.0871
19.0382,494,1.5935
19.0424,663,2.1387
19.0466,611,1.9710
19.0508,404,1.3032
19.0551,362,1.1677
19.0593,555,1.7903
19.0636,677,2.1839
19.0678,557,1.7968
19.0720,368,1.1871
19.0762,408,1.3161
19.0804,608,1.9613
19.0846,679,2.1903
19.0889,516,1.6645
19.0931,361,1.1645
19.0973,463,1.4935
19.1015,649,2.0935
19.1058,653,2.1065
19.1100,457,1.4742
19.1142,359,1.1581
19.1185,521,1.6806
19.1227,678,2.1871
19.1269,607,1.9581
19.1312,398,1.2839
19.1354,375,1.2097
19.1396,574,1.8516
19.1438,687,2.2161
19.1481,559,1.8032
19.1523,372,1.2000
19.1565,427,1.3774
19.1607,628,2.0258
19.1649,681,2.1968
19.1692,506,1.6323
19.1734,368,1.1871
19.1776,489,1.5774
19.1818,669,2.1581
19.1860,660,2.1290
19.1902,462,1.4903
19.1945,383,1.2355
19.1987,560,1.8065
19.2030,712,2.2968
19.2072,622,2.0065
19.2114,428,1.3806
19.2156,438,1.4129
19.2198,642,2.0710
19.2240,739,2.3839
19.2283,588,1.8968
19.2325,420,1.3548
19.2367,502,1.6194
19.2409,700,2.2581
19.2452,724,2.3355
19.2495,531,1.7129
19.2538,419,1.3516
19.2581,581,1.8742
19.2624,746,2.4065
19.2668,673,2.1710
19.2710,461,1.4871
19.2754,443,1.4290
19.2796,638,2.0581
19.2839,727,2.3452
19.2882,565,1.8226
19.2925,389,1.2548
19.2968,481,1.5516
19.3012,681,2.1968
19.3056,673,2.1710
19.3100,452,1.4581
19.3143,377,1.2161
19.3185,554,1.7871
19.3228,697,2.2484
19.3271,598,1.9290
19.3314,393,1.2677
19.3357,413,1.3323
19.3400,623,2.0097
19.3444,696,2.2452
19.3486,519,1.6742
19.3529,363,1.1710
19.3572,483,1.5581
19.3614,677,2.1839
19.3657,663,2.1387
19.3700,451,1.4548
19.3743,379,1.2226
19.3786,563,1.8161
19.3829,709,2.2871
19.3871,601,1.9387
19.3914,402,1.2968
19.3957,423,1.3645
19.4000,630,2.0323
19.4042,701,2.2613
19.4084,534,1.7226
19.4126,371,1.1968
19.4168,469,1.5129
19.4211,666,2.1484
19.4253,678,2.1871
19.4295,475,1.5323
19.4338,370,1.1935
19.4380,530,1.7097
19.4422,696,2.2452
19.4464,635,2.0484
19.4506,422,1.3613
19.4549,391,1.2613
19.4591,592,1.9097
19.4634,703,2.2677
19.4677,556,1.7935
19.4721,365,1.1774
19.4764,439,1.4161
19.4807,645,2.0806
19.4850,662,2.1355
19.4893,455,1.4677
19.4935,341,1.1000
19.4978,508,1.6387
19.5022,683,2.2032
19.5064,608,1.9613
19.5107,393,1.2677
19.5150,368,1.1871
19.5193,576,1.8581
19.5235,678,2.1871
19.5278,517,1.6677
19.5321,328,1.0581
19.5364,404,1.3032
19.5406,613,1.9774
19.5448,641,2.0677
19.5490,442,1.4258
19.5532,310,1.0000
19.5575,455,1.4677
19.5617,638,2.0581
19.5659,600,1.9355
19.5701,389,1.2548
19.5743,329,1.0613
19.5786,524,1.6903
19.5828,668,2.1548
19.5870,565,1.8226
19.5913,368,1.1871
19.5956,392,1.2645
19.5998,607,1.9581
19.6041,675,2.1774
19.6083,494,1.5935
19.6125,324,1.0452
19.6168,423,1.3645
19.6210,625,2.0161
19.6252,625,2.0161
19.6294,410,1.3226
19.6337,299,0.9645
19.6379,463,1.4935
19.6421,633,2.0419
19.6464,564,1.8194
19.6506,349,1.1258
19.6548,318,1.0258
19.6590,524,1.6903
19.6633,642,2.0710
19.6675,509,1.6419
19.6717,313,1.0097
19.6759,358,1.1548
19.6802,571,1.8419
19.6844,626,2.0194
19.6886,446,1.4387
19.6928,311,1.0032
19.6971,459,1.4806
19.7014,685,2.2097
19.7056,713,2.3000
19.7100,562,1.8129
19.7142,563,1.8161
19.7186,820,2.6452
19.7229,978,3.1548
19.7272,728,2.3484
19.7315,311,1.0032
19.7359,246,0.7935
19.7402,463,1.4935
19.7445,543,1.7516
19.7489,370,1.1935
19.7532,246,0.7935
19.7575,402,1.2968
19.7619,596,1.9226
19.7662,544,1.7548
19.7705,321,1.0355
19.7748,282,0.9097
19.7791,492,1.5871
19.7835,613,1.9774
19.7878,465,1.5000
19.7920,276,0.8903
19.7963,339,1.0935
19.8006,549,1.7710
19.8049,584,1.8839
19.8091,383,1.2355
19.8134,258,0.8323
19.8177,411,1.3258
19.8220,587,1.8935
19.8262,528,1.7032
19.8307,309,0.9968
19.8350,289,0.9323
19.8394,507,1.6355
19.8439,610,1.9677
19.8484,433,1.3968
19.8528,270,0.8710
19.8572,402,1.2968
19.8616,600,1.9355
19.8660,566,1.8258
19.8705,341,1.1000
19.8749,313,1.0097
19.8793,526,1.6968
19.8837,636,2.0516
19.8881,472,1.5226
19.8925,292,0.9419
19.8969,411,1.3258
19.9014,616,1.9871
19.9058,590,1.9032
19.9102,366,1.1806
19.9147,316,1.0194
19.9191,530,1.7097
19.9235,649,2.0935
19.9278,498,1.6065
19.9322,311,1.0032
19.9366,407,1.3129
19.9410,617,1.9903
19.9454,623,2.0097
19.9497,412,1.3290
19.9541,323,1.0419
19.9584,515,1.6613
19.9633,668,2.1548
19.9677,524,1.6903
19.9721,326,1.0516
19.9764,400,1.2903
19.9808,614,1.9806
19.9852,630,2.0323
19.9895,413,1.3323
19.9938,301,0.9710
19.9982,478,1.5419
20.0026,637,2.0548
20.0069,534,1.7226
20.0114,310,1.0000
20.0237,622,2.0065
20.0282,435,1.4032
20.0344,282,0.9097
20.0388,487,1.5710
20.0432,621,2.0032
20.0476,480,1.5484
20.0520,282,0.9097
20.0563,349,1.1258
20.0607,567,1.8290
20.0651,589,1.9000
20.0695,377,1.2161
20.0738,269,0.8677
20.0782,444,1.4323
20.0826,608,1.9613
20.0870,509,1.6419
20.0913,299,0.9645
20.0956,320,1.0323
20.1000,538,1.7355
20.1044,605,1.9516
20.1088,415,1.3387
20.1131,268,0.8645
20.1175,413,1.3323
20.1219,604,1.9484
20.1262,553,1.7839
20.1306,332,1.0710
20.1350,304,0.9806
20.1394,518,1.6710
20.1438,619,1.9968
20.1482,452,1.4581
20.1525,280,0.9032
20.1569,388,1.2516
20.1613,595,1.9194
20.1657,582,1.8774
20.1701,364,1.1742
20.1744,298,0.9613
20.1788,499,1.6097
20.1832,631,2.0355
20.1877,491,1.5839
20.1921,297,0.9581
20.1965,376,1.2129
20.2009,590,1.9032
20.2053,605,1.9516
20.2096,391,1.2613
20.2139,292,0.9419
20.2184,475,1.5323
20.2227,632,2.0387
20.2271,527,1.7000
20.2315,315,1.0161
20.2358,342,1.1032
20.2401,561,1.8097
20.2445,624,2.0129
20.2489,427,1.3774
20.2533,283,0.9129
20.2577,434,1.4000
20.2620,617,1.9903
20.2664,558,1.8000
20.2708,334,1.0774
20.2752,314,1.0129
20.2797,534,1.7226
20.2840,624,2.0129
20.2884,448,1.4452
20.2928,285,0.9194
20.2972,409,1.3194
20.3015,608,1.9613
20.3059,585,1.8871
20.3102,367,1.1839
20.3145,304,0.9806
20.3189,505,1.6290
20.3233,637,2.0548
20.3276,502,1.6194
20.3320,303,0.9774
20.3364,370,1.1935
20.3407,584,1.8839
20.3451,610,1.9677
20.3495,403,1.3000
20.3539,304,0.9806
20.3583,491,1.5839
20.3627,653,2.1065
20.3671,549,1.7710
20.3715,339,1.0935
20.3759,375,1.2097
20.3802,601,1.9387
20.3846,665,2.1452
20.3890,467,1.5065
20.3934,322,1.0387
20.3978,475,1.5323
20.4022,651,2.1000
20.4066,576,1.8581
20.4110,355,1.1452
20.4153,346,1.1161
20.4197,560,1.8065
20.4241,645,2.0806
20.4285,465,1.5000
20.4330,302,0.9742
20.4374,430,1.3871
20.4417,622,2.0065
20.4460,584,1.8839
20.4504,360,1.1613
20.4547,309,0.9968
20.4591,519,1.6742
20.4634,649,2.0935
20.4678,511,1.6484
20.4721,313,1.0097
20.4765,384,1.2387
20.4808,604,1.9484
20.4852,645,2.0806
20.4895,457,1.4742
20.4939,379,1.2226
20.4982,601,1.9387
20.5025,836,2.6968
20.5069,833,2.6871
20.5113,687,2.2161
20.5156,717,2.3129
20.5200,828,2.6710
20.5243,710,2.2903
20.5286,396,1.2774
20.5329,215,0.6935
20.5373,365,1.1774
20.5416,592,1.9097
20.5460,580,1.8710
20.5503,374,1.2065
20.5547,318,1.0258
20.5590,519,1.6742
20.5633,652,2.1032
20.5676,517,1.6677
20.5720,313,1.0097
20.5763,373,1.2032
20.5807,594,1.9161
20.5850,633,2.0419
20.5893,430,1.3871
20.5937,309,0.9968
20.5980,475,1.5323
20.6024,655,2.1129
20.6067,585,1.8871
20.6110,366,1.1806
20.6154,355,1.1452
20.6197,570,1.8387
20.6241,661,2.1323
20.6284,487,1.5710
20.6327,317,1.0226
20.6371,431,1.3903
20.6414,637,2.0548
20.6458,621,2.0032
20.6502,399,1.2871
20.6545,330,1.0645
20.6589,531,1.7129
20.6632,669,2.1581
20.6675,543,1.7516
20.6718,341,1.1000
20.6762,393,1.2677
20.6805,611,1.9710
20.6849,659,2.1258
20.6892,459,1.4806
20.6935,330,1.0645
20.6979,485,1.5645
20.7022,664,2.1419
20.7065,610,1.9677
20.7108,389,1.2548
20.7151,359,1.1581
20.7193,565,1.8226
20.7236,684,2.2065
20.7279,542,1.7484
20.7322,351,1.1323
20.7365,425,1.3710
20.7407,640,2.0645
20.7450,677,2.1839
20.7493,476,1.5355
20.7536,350,1.1290
20.7578,506,1.6323
20.7621,686,2.2129
20.7664,632,2.0387
20.7707,414,1.3355
20.7751,382,1.2323
20.7794,588,1.8968
20.7837,699,2.2548
20.7879,549,1.7710
20.7922,354,1.1419
20.7965,424,1.3677
20.8011,637,2.0548
20.8054,640,2.0645
20.8097,422,1.3613
20.8140,314,1.0129
20.8183,489,1.5774
20.8226,651,2.1000
20.8269,567,1.8290
20.8312,351,1.1323
20.8355,349,1.1258
20.8398,565,1.8226
20.8441,659,2.1258
20.8484,488,1.5742
20.8526,313,1.0097
20.8569,411,1.3258
20.8612,617,1.9903
20.8655,624,2.0129
20.8698,418,1.3484
20.8741,320,1.0323
20.8783,494,1.5935
20.8825,658,2.1226
20.8868,584,1.8839
20.8910,372,1.2000
20.8952,349,1.1258
20.8995,559,1.8032
20.9037,673,2.1710
20.9079,527,1.7000
20.9121,339,1.0935
20.9164,400,1.2903
20.9206,614,1.9806
20.9249,661,2.1323
20.9291,464,1.4968
20.9334,322,1.0387
20.9376,463,1.4935
20.9419,651,2.1000
20.9461,619,1.9968
20.9503,407,1.3129
20.9545,341,1.1000
20.9588,534,1.7226
20.9631,678,2.1871
20.9673,572,1.8452
20.9715,364,1.1742
20.9758,384,1.2387
20.9800,599,1.9323
20.9842,688,2.2194
20.9884,525,1.6935
20.9926,352,1.1355
20.9968,444,1.4323
21.0011,652,2.1032
21.0053,676,2.1806
21.0095,475,1.5323
21.0137,353,1.1387
21.0179,502,1.6194
21.0221,681,2.1968
21.0263,634,2.0452
21.0306,422,1.3613
21.0348,372,1.2000
21.0390,567,1.8290
21.0433,703,2.2677
21.0475,585,1.8871
21.0517,384,1.2387
21.0559,411,1.3258
21.0601,621,2.0032
21.0644,694,2.2387
21.0686,519,1.6742
21.0728,353,1.1387
21.0770,457,1.4742
21.0812,660,2.1290
21.0855,670,2.1613
21.0897,462,1.4903
21.0939,351,1.1323
21.0982,521,1.6806
21.1025,693,2.2355
21.1068,626,2.0194
21.1110,417,1.3452
21.1153,402,1.2968
21.1195,612,1.9742
21.1237,728,2.3484
21.1280,579,1.8677
21.1322,392,1.2645
21.1365,467,1.5065
21.1407,685,2.2097
21.1449,730,2.3548
21.1491,532,1.7161
21.1533,384,1.2387
21.1575,511,1.6484
21.1618,701,2.2613
21.1660,676,2.1806
21.1703,465,1.5000
21.1745,389,1.2548
21.1787,568,1.8323
21.1829,715,2.3065
21.1872,613,1.9774
21.1914,405,1.3065
21.1956,409,1.3194
21.1998,620,2.0000
21.2041,716,2.3097
21.2083,557,1.7968
21.2126,376,1.2129
21.2168,461,1.4871
21.2210,672,2.1677
21.2253,699,2.2548
21.2295,501,1.6161
21.2338,381,1.2290
21.2380,539,1.7387
21.2422,731,2.3581
21.2465,702,2.2645
21.2508,508,1.6387
21.2551,508,1.6387
21.2594,783,2.5258
21.2638,984,3.1742
21.2682,907,2.9258
21.2725,743,2.3968
21.2769,724,2.3355
21.2813,736,2.3742
21.2856,615,1.9839
21.2899,384,1.2387
21.2942,306,0.9871
21.2984,507,1.6355
21.3027,691,2.2290
21.3070,623,2.0097
21.3112,417,1.3452
21.3155,406,1.3097
21.3197,611,1.9710
21.3239,717,2.3129
21.3281,567,1.8290
21.3323,380,1.2258
21.3366,446,1.4387
21.3408,655,2.1129
21.3450,703,2.2677
21.3492,507,1.6355
21.3535,366,1.1806
21.3577,505,1.6290
21.3619,699,2.2548
21.3662,674,2.1742
21.3704,454,1.4645
21.3747,384,1.2387
21.3790,578,1.8645
21.3833,718,2.3161
21.3876,598,1.9290
21.3919,396,1.2774
21.3962,439,1.4161
21.4005,655,2.1129
21.4049,710,2.2903
21.4092,516,1.6645
21.4135,376,1.2129
21.4178,520,1.6774
21.4221,706,2.2774
21.4264,666,2.1484
21.4307,447,1.4419
21.4351,403,1.3000
21.4395,617,1.9903
21.4438,733,2.3645
21.4482,582,1.8774
21.4525,397,1.2806
21.4568,477,1.5387
21.4611,691,2.2290
21.4654,713,2.3000
21.4697,505,1.6290
21.4740,397,1.2806
21.4783,567,1.8290
21.4826,740,2.3871
21.4869,662,2.1355
21.4913,450,1.4516
21.4956,445,1.4355
21.4998,656,2.1161
21.5041,758,2.4452
21.5084,602,1.9419
21.5127,423,1.3645
21.5169,511,1.6484
21.5212,717,2.3129
21.5255,734,2.3677
21.5298,520,1.6774
21.5341,409,1.3194
21.5384,574,1.8516
21.5426,738,2.3806
21.5469,658,2.1226
21.5512,432,1.3935
21.5555,413,1.3323
21.5598,622,2.0065
21.5642,714,2.3032
21.5684,546,1.7613
21.5727,364,1.1742
21.5770,452,1.4581
21.5812,655,2.1129
21.5855,667,2.1516
21.5898,457,1.4742
21.5940,346,1.1161
21.5983,516,1.6645
21.6026,686,2.2129
21.6069,615,1.9839
21.6112,396,1.2774
21.6154,376,1.2129
21.6197,583,1.8806
21.6239,694,2.2387
21.6282,545,1.7581
21.6326,356,1.1484
21.6369,439,1.4161
21.6412,644,2.0774
21.6455,661,2.1323
21.6498,451,1.4548
21.6541,344,1.1097
21.6584,516,1.6645
21.6627,680,2.1935
21.6670,598,1.9290
21.6713,383,1.2355
21.6756,374,1.2065
21.6799,586,1.8903
21.6842,684,2.2065
21.6885,522,1.6839
21.6928,345,1.1129
21.6972,448,1.4452
21.7016,663,2.1387
21.7059,652,2.1032
21.7102,441,1.4226
21.7145,354,1.1419
21.7189,543,1.7516
21.7232,688,2.2194
21.7275,581,1.8742
21.7317,374,1.2065
21.7360,391,1.2613
21.7410,628,2.0258
21.7453,654,2.1097
21.7496,452,1.4581
21.7538,327,1.0548
21.7581,483,1.5581
21.7624,661,2.1323
21.7667,603,1.9452
21.7709,388,1.2516
21.7752,348,1.1226
21.7794,550,1.7742
21.7837,673,2.1710
21.7879,543,1.7516
21.7921,348,1.1226
21.7963,386,1.2452
21.8005,593,1.9129
21.8048,656,2.1161
21.8090,475,1.5323
21.8132,319,1.0290
21.8174,436,1.4065
21.8217,633,2.0419
21.8259,620,2.0000
21.8302,404,1.3032
21.8345,321,1.0355
21.8388,507,1.6355
21.8431,655,2.1129
21.8473,560,1.8065
21.8515,354,1.1419
21.8558,363,1.1710
21.8600,578,1.8645
21.8642,677,2.1839
21.8684,523,1.6871
21.8726,344,1.1097
21.8769,419,1.3516
21.8811,624,2.0129
21.8853,663,2.1387
21.8895,473,1.5258
21.8937,345,1.1129
21.8980,482,1.5548
21.9022,656,2.1161
21.9064,612,1.9742
21.9106,395,1.2742
21.9148,330,1.0645
21.9190,514,1.6581
21.9232,655,2.1129
21.9275,551,1.7774
21.9317,342,1.1032
21.9359,351,1.1323
21.9401,554,1.7871
21.9443,641,2.0677
21.9486,481,1.5516
21.9528,307,0.9903
21.9570,391,1.2613
21.9612,596,1.9226
21.9654,626,2.0194
21.9696,428,1.3806
21.9738,304,0.9806
21.9781,450,1.4516
21.9823,629,2.0290
21.9865,587,1.8935
21.9907,380,1.2258
21.9952,351,1.1323
21.9995,575,1.8548
22.0038,733,2.3645
22.0080,662,2.1355
22.0123,548,1.7677
22.0165,681,2.1968
22.0207,944,3.0452
22.0250,976,3.1484
22.0292,635,2.0484
22.0335,293,0.9452
22.0377,336,1.0839
22.0419,535,1.7258
22.0462,541,1.7452
22.0504,352,1.1355
22.0546,293,0.9452
22.0589,486,1.5677
22.0631,635,2.0484
22.0673,539,1.7387
22.0715,330,1.0645
22.0758,327,1.0548
22.0800,535,1.7258
22.0842,629,2.0290
22.0884,477,1.5387
22.0927,299,0.9645
22.0969,381,1.2290
22.1011,592,1.9097
22.1054,621,2.0032
22.1096,421,1.3581
22.1138,291,0.9387
22.1180,437,1.4097
22.1222,623,2.0097
22.1264,587,1.8935
22.1308,367,1.1839
22.1350,310,1.0000
22.1392,499,1.6097
22.1434,637,2.0548
22.1476,527,1.7000
22.1519,326,1.0516
22.1561,348,1.1226
22.1603,560,1.8065
22.1645,645,2.0806
22.1687,479,1.5452
22.1730,312,1.0065
22.1772,413,1.3323
22.1815,617,1.9903
22.1857,629,2.0290
22.1899,428,1.3806
22.1941,323,1.0419
22.1984,485,1.5645
22.2026,654,2.1097
22.2069,597,1.9258
22.2111,388,1.2516
22.2153,360,1.1613
22.2195,561,1.8097
22.2237,689,2.2226
22.2279,562,1.8129
22.2323,366,1.1806
22.2365,421,1.3581
22.2408,631,2.0355
22.2450,689,2.2226
22.2492,510,1.6452
22.2534,363,1.1710
22.2576,479,1.5452
22.2618,670,2.1613
22.2660,665,2.1452
22.2703,456,1.4710
22.2745,368,1.1871
22.2788,546,1.7613
22.2831,694,2.2387
22.2874,593,1.9129
22.2917,378,1.2194
22.2960,383,1.2355
22.3003,591,1.9065
22.3047,663,2.1387
22.3090,476,1.5355
22.3134,316,1.0194
22.3178,438,1.4129
22.3221,623,2.0097
22.3264,587,1.8935
22.3306,367,1.1839
22.3350,303,0.9774
22.3392,497,1.6032
22.3435,630,2.0323
22.3478,515,1.6613
22.3520,313,1.0097
22.3563,344,1.1097
22.3606,558,1.8000
22.3649,624,2.0129
22.3691,441,1.4226
22.3734,292,0.9419
22.3777,411,1.3258
22.3820,602,1.9419
22.3862,589,1.9000
22.3904,385,1.2419
22.3946,301,0.9710
22.3989,478,1.5419
22.4031,631,2.0355
22.4073,549,1.7710
22.4115,343,1.1065
22.4157,335,1.0806
22.4200,541,1.7452
22.4242,648,2.0903
22.4284,506,1.6323
22.4326,326,1.0516
22.4369,397,1.2806
22.4411,602,1.9419
22.4453,639,2.0613
22.4495,450,1.4516
22.4537,317,1.0226
22.4580,458,1.4774
22.4622,644,2.0774
22.4665,613,1.9774
22.4707,398,1.2839
22.4750,335,1.0806
22.4792,529,1.7065
22.4834,670,2.1613
22.4876,565,1.8226
22.4918,359,1.1581
22.4960,369,1.1903
22.5002,578,1.8645
22.5045,667,2.1516
22.5088,497,1.6032
22.5131,329,1.0613
22.5175,436,1.4065
22.5218,636,2.0516
22.5262,628,2.0258
22.5304,418,1.3484
22.5347,334,1.0774
22.5390,518,1.6710
22.5433,669,2.1581
22.5476,568,1.8323
22.5519,361,1.1645
22.5561,380,1.2258
22.5604,596,1.9226
22.5646,680,2.1935
22.5689,510,1.6452
22.5731,342,1.1032
22.5773,440,1.4194
22.5816,642,2.0710
22.5858,653,2.1065
22.5901,447,1.4419
22.5943,344,1.1097
22.5985,511,1.6484
22.6028,679,2.1903
22.6071,607,1.9581
22.6114,393,1.2677
22.6157,375,1.2097
22.6200,583,1.8806
22.6243,682,2.2000
22.6287,520,1.6774
22.6331,351,1.1323
22.6375,464,1.4968
22.6418,670,2.1613
22.6461,670,2.1613
22.6504,460,1.4839
22.6546,370,1.1935
22.6589,548,1.7677
22.6632,707,2.2806
22.6675,613,1.9774
22.6718,412,1.3290
22.6761,425,1.3710
22.6803,634,2.0452
22.6845,715,2.3065
22.6887,546,1.7613
22.6930,366,1.1806
22.6972,452,1.4581
22.7014,655,2.1129
22.7057,670,2.1613
22.7099,465,1.5000
22.7141,344,1.1097
22.7183,490,1.5806
22.7225,668,2.1548
22.7267,624,2.0129
22.7310,406,1.3097
22.7352,357,1.1516
22.7394,550,1.7742
22.7437,685,2.2097
22.7479,565,1.8226
22.7522,366,1.1806
22.7565,407,1.3129
22.7608,620,2.0000
22.7651,679,2.1903
22.7693,494,1.5935
22.7735,352,1.1355
22.7778,489,1.5774
22.7821,700,2.2581
22.7864,709,2.2871
22.7906,539,1.7387
22.7949,535,1.7258
22.7992,805,2.5968
22.8034,998,3.2194
22.8077,914,2.9484
22.8120,581,1.8742
22.8163,400,1.2903
22.8206,503,1.6226
22.8249,565,1.8226
22.8292,405,1.3065
22.8335,270,0.8710
22.8378,409,1.3194
22.8421,622,2.0065
22.8464,609,1.9645
22.8508,390,1.2581
22.8551,326,1.0516
22.8593,515,1.6613
22.8636,652,2.1032
22.8679,533,1.7194
22.8721,325,1.0484
22.8764,358,1.1548
22.8806,577,1.8613
22.8849,654,2.1097
22.8892,472,1.5226
22.8934,309,0.9968
22.8977,434,1.4000
22.9023,631,2.0355
22.9066,599,1.9323
22.9109,385,1.2419
22.9152,330,1.0645
22.9194,524,1.6903
22.9237,665,2.1452
22.9279,551,1.7774
22.9322,349,1.1258
22.9365,383,1.2355
22.9407,599,1.9323
22.9450,667,2.1516
22.9493,484,1.5613
22.9536,329,1.0613
22.9579,458,1.4774
22.9622,650,2.0968
22.9664,629,2.0290
22.9707,418,1.3484
22.9749,345,1.1129
22.9791,529,1.7065
22.9833,678,2.1871
22.9876,581,1.8742
22.9918,378,1.2194
22.9960,386,1.2452
23.0002,601,1.9387
23.0045,699,2.2548
23.0087,543,1.7516
23.0130,367,1.1839
23.0172,455,1.4677
23.0214,664,2.1419
23.0256,695,2.2419
23.0298,497,1.6032
23.0341,372,1.2000
23.0384,522,1.6839
23.0427,705,2.2742
23.0471,643,2.0742
23.0513,426,1.3742
23.0556,396,1.2774
23.0599,600,1.9355
23.0642,718,2.3161
23.0685,575,1.8548
23.0728,381,1.2290
23.0771,450,1.4516
23.0814,654,2.1097
23.0857,668,2.1548
23.0900,458,1.4774
23.0943,337,1.0871
23.0987,499,1.6097
23.1030,661,2.1323
23.1073,576,1.8581
23.1117,353,1.1387
23.1159,341,1.1000
23.1202,544,1.7548
23.1244,645,2.0806
23.1286,492,1.5871
23.1330,312,1.0065
23.1373,398,1.2839
23.1415,603,1.9452
23.1458,621,2.0032
23.1501,413,1.3323
23.1543,300,0.9677
23.1586,464,1.4968
23.1628,637,2.0548
23.1670,578,1.8645
23.1712,363,1.1710
23.1754,322,1.0387
23.1797,523,1.6871
23.1839,653,2.1065
23.1881,529,1.7065
23.1923,331,1.0677
23.1966,369,1.1903
23.2009,584,1.8839
23.2051,648,2.0903
23.2093,472,1.5226
23.2135,319,1.0290
23.2178,439,1.4161
23.2221,634,2.0452
23.2264,613,1.9774
23.2308,394,1.2710
23.2351,325,1.0484
23.2394,514,1.6581
23.2438,654,2.1097
23.2482,523,1.6871
23.2527,325,1.0484
23.2571,396,1.2774
23.2615,614,1.9806
23.2660,630,2.0323
23.2704,412,1.3290
23.2749,323,1.0419
23.2792,513,1.6548
23.2837,660,2.1290
23.2881,538,1.7355
23.2926,333,1.0742
23.2970,394,1.2710
23.3014,611,1.9710
23.3058,632,2.0387
23.3103,415,1.3387
23.3147,318,1.0258
23.3191,506,1.6323
23.3236,658,2.1226
23.3279,544,1.7548
23.3323,337,1.0871
23.3367,379,1.2226
23.3410,598,1.9290
23.3454,650,2.0968
23.3498,450,1.4516
23.3542,316,1.0194
23.3585,473,1.5258
23.3629,653,2.1065
23.3673,585,1.8871
23.3717,368,1.1871
23.3761,362,1.1677
23.3804,576,1.8581
23.3848,661,2.1323
23.3892,484,1.5613
23.3936,322,1.0387
23.3979,449,1.4484
23.4024,648,2.0903
23.4067,614,1.9806
23.4111,396,1.2774
23.4154,345,1.1129
23.4198,547,1.7645
23.4241,673,2.1710
23.4285,537,1.7323
23.4328,353,1.1387
23.4372,429,1.3839
23.4415,643,2.0742
23.4458,668,2.1548
23.4502,456,1.4710
23.4546,349,1.1258
23.4590,528,1.7032
23.4634,700,2.2581
23.4678,604,1.9484
23.4721,387,1.2484
23.4765,409,1.3194
23.4809,618,1.9935
23.4852,679,2.1903
23.4896,482,1.5548
23.4943,336,1.0839
23.4987,505,1.6290
23.5031,678,2.1871
23.5075,592,1.9097
23.5119,369,1.1903
23.5162,369,1.1903
23.5206,585,1.8871
23.5249,667,2.1516
23.5293,490,1.5806
23.5336,331,1.0677
23.5380,458,1.4774
23.5423,656,2.1161
23.5467,626,2.0194
23.5511,402,1.2968
23.5555,353,1.1387
23.5599,562,1.8129
23.5642,687,2.2161
23.5685,558,1.8000
23.5729,388,1.2516
23.5773,491,1.5839
23.5817,748,2.4129
23.5860,835,2.6935
23.5904,699,2.2548
23.5948,670,2.1613
23.5992,885,2.8548
23.6036,941,3.0355
23.6080,628,2.0258
23.6124,293,0.9452
23.6168,305,0.9839
23.6212,521,1.6806
23.6255,569,1.8355
23.6300,374,1.2065
23.6344,254,0.8194
23.6388,415,1.3387
23.6432,584,1.8839
23.6476,511,1.6484
23.6519,302,0.9742
23.6563,311,1.0032
23.6607,542,1.7484
23.6651,638,2.0581
23.6695,461,1.4871
23.6738,285,0.9194
23.6782,386,1.2452
23.6826,576,1.8581
23.6870,548,1.7677
23.6914,290,0.9355
23.6958,173,0.5581
23.7002,338,1.0903
23.7046,479,1.5452
23.7089,370,1.1935
23.7132,185,0.5968
23.7176,244,0.7871
23.7220,451,1.4548
23.7264,485,1.5645
23.7308,289,0.9323
23.7352,186,0.6000
23.7395,354,1.1419
23.7439,511,1.6484
23.7483,418,1.3484
23.7527,220,0.7097
23.7571,248,0.8000
23.7615,456,1.4710
23.7659,514,1.6581
23.7703,339,1.0935
23.7746,217,0.7000
23.7790,370,1.1935
23.7834,537,1.7323
23.7878,461,1.4871
23.7921,237,0.7645
23.7965,212,0.6839
23.8008,433,1.3968
23.8053,552,1.7806
23.8097,404,1.3032
23.8140,230,0.7419
23.8184,318,1.0258
23.8228,505,1.6290
23.8272,504,1.6258
23.8316,310,1.0000
23.8360,250,0.8065
23.8404,441,1.4226
23.8448,579,1.8677
23.8492,462,1.4903
23.8535,299,0.9645
23.8578,390,1.2581
23.8622,587,1.8935
23.8666,570,1.8387
23.8710,339,1.0935
23.8754,229,0.7387
23.8797,398,1.2839
23.8841,545,1.7581
23.8886,446,1.4387
23.8930,253,0.8161
23.8974,287,0.9258
23.9018,496,1.6000
23.9062,550,1.7742
23.9106,369,1.1903
23.9149,250,0.8065
23.9193,401,1.2935
23.9237,573,1.8484
23.9280,519,1.6742
23.9324,321,1.0355
23.9367,310,1.0000
23.9410,500,1.6129
23.9454,592,1.9097
23.9497,445,1.4355
23.9541,288,0.9290
23.9584,376,1.2129
23.9628,556,1.7935
23.9671,554,1.7871
23.9715,364,1.1742
23.9759,300,0.9677
23.9802,476,1.5355
23.9846,608,1.9613
23.9889,496,1.6000
23.9932,307,0.9903
23.9975,343,1.1065
24.0019,546,1.7613
24.0062,607,1.9581
24.0106,428,1.3806
24.0149,304,0.9806
24.0193,441,1.4226
24.0236,606,1.9548
24.0280,564,1.8194
24.0323,375,1.2097
24.0367,356,1.1484
24.0410,541,1.7452
24.0454,632,2.0387
24.0497,482,1.5548
24.0540,322,1.0387
24.0584,417,1.3452
24.0627,603,1.9452
24.0671,609,1.9645
24.0714,412,1.3290
24.0758,334,1.0774
24.0801,508,1.6387
24.0844,656,2.1161
24.0887,569,1.8355
24.0931,377,1.2161
24.0975,403,1.3000
24.1018,588,1.8968
24.1062,635,2.0484
24.1105,466,1.5032
24.1149,348,1.1226
24.1192,483,1.5581
24.1235,642,2.0710
24.1279,596,1.9226
24.1322,400,1.2903
24.1366,382,1.2323
24.1409,566,1.8258
24.1452,659,2.1258
24.1495,527,1.7000
24.1539,366,1.1806
24.1582,447,1.4419
24.1626,637,2.0548
24.1669,658,2.1226
24.1713,467,1.5065
24.1756,381,1.2290
24.1800,551,1.7774
24.1843,685,2.2097
24.1887,591,1.9065
24.1931,400,1.2903
24.1974,438,1.4129
24.2018,630,2.0323
24.2062,675,2.1774
24.2105,486,1.5677
24.2148,351,1.1323
24.2192,495,1.5968
24.2234,687,2.2161
24.2277,672,2.1677
24.2320,474,1.5290
24.2362,414,1.3355
24.2405,584,1.8839
24.2447,712,2.2968
24.2490,603,1.9452
24.2533,409,1.3194
24.2575,429,1.3839
24.2618,623,2.0097
24.2660,690,2.2258
24.2702,528,1.7032
24.2744,381,1.2290
24.2786,485,1.5645
24.2828,660,2.1290
24.2870,655,2.1129
24.2913,458,1.4774
24.2955,359,1.1581
24.2997,513,1.6548
24.3039,674,2.1742
24.3081,624,2.0129
24.3124,428,1.3806
24.3166,402,1.2968
24.3209,588,1.8968
24.3252,705,2.2742
24.3295,588,1.8968
24.3338,433,1.3968
24.3381,521,1.6806
24.3425,748,2.4129
24.3468,846,2.7290
24.3511,744,2.4000
24.3554,703,2.2677
24.3597,872,2.8129
24.3640,935,3.0161
24.3683,683,2.2032
24.3725,348,1.1226
24.3768,299,0.9645
24.3811,504,1.6258
24.3855,628,2.0258
24.3898,501,1.6161
24.3941,344,1.1097
24.3984,440,1.4194
24.4030,635,2.0484
24.4073,636,2.0516
24.4116,443,1.4290
24.4158,360,1.1613
24.4200,522,1.6839
24.4242,665,2.1452
24.4285,588,1.8968
24.4327,403,1.3000
24.4369,404,1.3032
24.4411,590,1.9032
24.4453,684,2.2065
24.4495,551,1.7774
24.4538,374,1.2065
24.4580,432,1.3935
24.4622,621,2.0032
24.4664,668,2.1548
24.4707,493,1.5903
24.4749,369,1.1903
24.4793,501,1.6161
24.4836,662,2.1355
24.4879,615,1.9839
24.4922,422,1.3613
24.4965,393,1.2677
24.5007,581,1.8742
24.5050,698,2.2516
24.5093,566,1.8258
24.5136,379,1.2226
24.5179,424,1.3677
24.5222,611,1.9710
24.5265,668,2.1548
24.5307,510,1.6452
24.5350,388,1.2516
24.5393,499,1.6097
24.5435,654,2.1097
24.5477,633,2.0419
24.5519,448,1.4452
24.5562,397,1.2806
24.5604,571,1.8419
24.5646,704,2.2710
24.5688,612,1.9742
24.5730,412,1.3290
24.5773,413,1.3323
24.5815,602,1.9419
24.5857,692,2.2323
24.5899,553,1.7839
24.5941,391,1.2613
24.5983,473,1.5258
24.6026,665,2.1452
24.6069,684,2.2065
24.6112,493,1.5903
24.6155,387,1.2484
24.6198,535,1.7258
24.6240,684,2.2065
24.6283,628,2.0258
24.6326,426,1.3742
24.6370,413,1.3323
24.6413,600,1.9355
24.6455,690,2.2258
24.6498,538,1.7355
24.6540,357,1.1516
24.6583,431,1.3903
24.6626,625,2.0161
24.6669,652,2.1032
24.6711,462,1.4903
24.6753,332,1.0710
24.6795,459,1.4806
24.6837,619,1.9968
24.6879,588,1.8968
24.6921,402,1.2968
24.6964,356,1.1484
24.7009,545,1.7581
24.7052,656,2.1161
24.7095,541,1.7452
24.7137,365,1.1774
24.7180,415,1.3387
24.7222,603,1.9452
24.7264,655,2.1129
24.7307,495,1.5968
24.7350,370,1.1935
24.7393,483,1.5581
24.7436,620,2.0000
24.7480,567,1.8290
24.7523,387,1.2484
24.7566,382,1.2323
24.7609,579,1.8677
24.7653,670,2.1613
24.7696,511,1.6484
24.7738,319,1.0290
24.7780,376,1.2129
24.7823,582,1.8774
24.7866,633,2.0419
24.7909,465,1.5000
24.7952,349,1.1258
24.7995,492,1.5871
24.8037,665,2.1452
24.8080,623,2.0097
24.8122,402,1.2968
24.8165,340,1.0968
24.8207,529,1.7065
24.8249,674,2.1742
24.8292,576,1.8581
24.8334,393,1.2677
24.8376,402,1.2968
24.8418,560,1.8065
24.8461,609,1.9645
24.8503,464,1.4968
24.8545,326,1.0516
24.8588,431,1.3903
24.8631,612,1.9742
24.8674,610,1.9677
24.8717,413,1.3323
24.8759,328,1.0581
24.8802,497,1.6032
24.8845,651,2.1000
24.8889,570,1.8387
24.8932,366,1.1806
24.8976,373,1.2032
24.9019,576,1.8581
24.9061,653,2.1065
24.9104,479,1.5452
24.9146,310,1.0000
24.9189,406,1.3097
24.9232,602,1.9419
24.9274,615,1.9839
24.9317,418,1.3484
24.9360,323,1.0419
24.9402,480,1.5484
24.9444,631,2.0355
24.9487,567,1.8290
24.9529,374,1.2065
24.9571,365,1.1774
24.9613,559,1.8032
24.9656,655,2.1129
24.9698,512,1.6516
24.9740,342,1.1032
24.9782,407,1.3129
24.9824,605,1.9516
24.9866,664,2.1419
24.9909,496,1.6000
24.9951,348,1.1226
24.9994,464,1.4968
25.0036,637,2.0548
25.0079,612,1.9742
25.0126,394,1.2710
25.0170,364,1.1742
25.0263,623,2.0097
25.0309,449,1.4484
25.0368,341,1.1000
25.0411,524,1.6903
25.0455,632,2.0387
25.0498,519,1.6742
25.0541,359,1.1581
25.0584,424,1.3677
25.0627,601,1.9387
25.0670,610,1.9677
25.0713,412,1.3290
25.0756,303,0.9774
25.0799,465,1.5000
25.0842,643,2.0742
25.0886,599,1.9323
25.0929,402,1.2968
25.0972,388,1.2516
25.1015,579,1.8677
25.1058,693,2.2355
25.1101,597,1.9258
25.1144,513,1.6548
25.1187,688,2.2194
25.1230,955,3.0806
25.1273,968,3.1226
25.1316,639,2.0613
25.1359,332,1.0710
25.1402,387,1.2484
25.1445,533,1.7194
25.1488,486,1.5677
25.1531,320,1.0323
25.1574,338,1.0903
25.1616,543,1.7516
25.1659,629,2.0290
25.1702,474,1.5290
25.1746,313,1.0097
25.1790,416,1.3419
25.1833,600,1.9355
25.1876,599,1.9323
25.1919,410,1.3226
25.1961,342,1.1032
25.2003,506,1.6323
25.2046,640,2.0645
25.2088,552,1.7806
25.2131,357,1.1516
25.2174,365,1.1774
25.2217,557,1.7968
25.2259,640,2.0645
25.2302,494,1.5935
25.2345,332,1.0710
25.2387,419,1.3516
25.2429,605,1.9516
25.2471,630,2.0323
25.2513,448,1.4452
25.2556,340,1.0968
25.2599,487,1.5710
25.2641,650,2.0968
25.2688,598,1.9290
25.2731,406,1.3097
25.2773,398,1.2839
25.2815,583,1.8806
25.2857,676,2.1806
25.2899,547,1.7645
25.2943,376,1.2129
25.2986,438,1.4129
25.3029,614,1.9806
25.3073,633,2.0419
25.3116,455,1.4677
25.3159,379,1.2226
25.3202,545,1.7581
25.3245,689,2.2226
25.3287,614,1.9806
25.3330,414,1.3355
25.3373,409,1.3194
25.3415,604,1.9484
25.3458,708,2.2839
25.3500,579,1.8677
25.3543,422,1.3613
25.3586,512,1.6516
25.3629,701,2.2613
25.3672,718,2.3161
25.3714,520,1.6774
25.3756,403,1.3000
25.3798,546,1.7613
25.3840,700,2.2581
25.3883,648,2.0903
25.3925,451,1.4548
25.3967,399,1.2871
25.4009,565,1.8226
25.4051,685,2.2097
25.4094,578,1.8645
25.4136,393,1.2677
25.4179,418,1.3484
25.4221,611,1.9710
25.4264,684,2.2065
25.4307,518,1.6710
25.4351,363,1.1710
25.4394,466,1.5032
25.4436,633,2.0419
25.4479,610,1.9677
25.4522,421,1.3581
25.4566,373,1.2032
25.4610,549,1.7710
25.4653,660,2.1290
25.4696,543,1.7516
25.4738,361,1.1645
25.4781,406,1.3097
25.4823,606,1.9548
25.4866,666,2.1484
25.4908,494,1.5935
25.4951,352,1.1355
25.4994,475,1.5323
25.5037,647,2.0871
25.5080,615,1.9839
25.5123,420,1.3548
25.5165,367,1.1839
25.5208,545,1.7581
25.5250,686,2.2129
25.5293,596,1.9226
25.5335,404,1.3032
25.5378,409,1.3194
25.5420,593,1.9129
25.5462,673,2.1710
25.5504,534,1.7226
25.5546,395,1.2742
25.5589,485,1.5645
25.5631,651,2.1000
25.5674,644,2.0774
25.5716,458,1.4774
25.5758,366,1.1806
25.5801,527,1.7000
25.5844,680,2.1935
25.5888,613,1.9774
25.5931,417,1.3452
25.5974,405,1.3065
25.6018,589,1.9000
25.6062,682,2.2000
25.6105,533,1.7194
25.6148,368,1.1871
25.6191,468,1.5097
25.6233,665,2.1452
25.6276,676,2.1806
25.6319,473,1.5258
25.6362,375,1.2097
25.6405,529,1.7065
25.6448,671,2.1645
25.6491,590,1.9032
25.6533,395,1.2742
25.6576,395,1.2742
25.6618,587,1.8935
25.6661,676,2.1806
25.6703,534,1.7226
25.6745,387,1.2484
25.6787,471,1.5194
25.6829,644,2.0774
25.6871,651,2.1000
25.6913,463,1.4935
25.6955,361,1.1645
25.6997,515,1.6613
25.7040,672,2.1677
25.7082,620,2.0000
25.7124,414,1.3355
25.7167,373,1.2032
25.7209,555,1.7903
25.7252,683,2.2032
25.7296,571,1.8419
25.7339,380,1.2258
25.7383,419,1.3516
25.7426,611,1.9710
25.7468,673,2.1710
25.7510,511,1.6484
25.7553,378,1.2194
25.7596,492,1.5871
25.7639,659,2.1258
25.7682,638,2.0581
25.7725,455,1.4677
25.7768,405,1.3065
25.7810,571,1.8419
25.7853,682,2.2000
25.7896,569,1.8355
25.7938,388,1.2516
25.7980,410,1.3226
25.8022,579,1.8677
25.8064,630,2.0323
25.8107,464,1.4968
25.8149,323,1.0419
25.8192,425,1.3710
25.8234,590,1.9032
25.8277,584,1.8839
25.8319,392,1.2645
25.8362,318,1.0258
25.8404,485,1.5645
25.8446,631,2.0355
25.8489,560,1.8065
25.8532,369,1.1903
25.8575,380,1.2258
25.8618,570,1.8387
25.8661,641,2.0677
25.8704,484,1.5613
25.8747,328,1.0581
25.8789,421,1.3581
25.8831,634,2.0452
25.8874,712,2.2968
25.8918,604,1.9484
25.8960,594,1.9161
25.9003,806,2.6000
25.9046,950,3.0645
25.9089,743,2.3968
25.9131,344,1.1097
25.9174,230,0.7419
25.9216,430,1.3871
25.9259,576,1.8581
25.9301,473,1.5258
25.9344,292,0.9419
25.9386,340,1.0968
25.9428,533,1.7194
25.9470,580,1.8710
25.9512,403,1.3000
25.9555,268,0.8645
25.9597,388,1.2516
25.9639,564,1.8194
25.9682,550,1.7742
25.9724,363,1.1710
25.9767,303,0.9774
25.9810,475,1.5323
25.9853,598,1.9290
25.9896,503,1.6226
25.9939,334,1.0774
25.9982,378,1.2194
26.0024,575,1.8548
26.0067,626,2.0194
26.0111,428,1.3806
26.0154,280,0.9032
26.0197,406,1.3097
26.0239,589,1.9000
26.0282,571,1.8419
26.0325,376,1.2129
26.0367,317,1.0226
26.0410,489,1.5774
26.0453,623,2.0097
26.0495,537,1.7323
26.0537,361,1.1645
26.0580,378,1.2194
26.0622,562,1.8129
26.0664,643,2.0742
26.0706,502,1.6194
26.0748,355,1.1452
26.0790,443,1.4290
26.0832,623,2.0097
26.0874,643,2.0742
26.0917,455,1.4677
26.0959,346,1.1161
26.1001,488,1.5742
26.1043,666,2.1484
26.1087,643,2.0742
26.1130,442,1.4258
26.1173,395,1.2742
26.1216,569,1.8355
26.1259,683,2.2032
26.1303,564,1.8194
26.1346,405,1.3065
26.1389,477,1.5387
26.1432,659,2.1258
26.1475,683,2.2032
26.1518,508,1.6387
26.1561,409,1.3194
26.1604,552,1.7806
26.1646,701,2.2613
26.1689,643,2.0742
26.1732,453,1.4613
26.1775,431,1.3903
26.1817,610,1.9677
26.1860,705,2.2742
26.1902,574,1.8516
26.1945,403,1.3000
26.1987,457,1.4742
26.2031,640,2.0645
26.2074,669,2.1581
26.2117,496,1.6000
26.2159,382,1.2323
26.2201,511,1.6484
26.2244,664,2.1419
26.2286,628,2.0258
26.2328,442,1.4258
26.2370,396,1.2774
26.2413,566,1.8258
26.2455,694,2.2387
26.2498,600,1.9355
26.2541,422,1.3613
26.2584,459,1.4806
26.2627,646,2.0839
26.2670,702,2.2645
26.2713,535,1.7258
26.2756,405,1.3065
26.2800,532,1.7161
26.2843,704,2.2710
26.2886,675,2.1774
26.2930,484,1.5613
26.2972,447,1.4419
26.3015,623,2.0097
26.3057,735,2.3710
26.3100,629,2.0290
26.3142,462,1.4903
26.3185,512,1.6516
26.3228,699,2.2548
26.3270,752,2.4258
26.3313,588,1.8968
26.3356,467,1.5065
26.3398,592,1.9097
26.3440,761,2.4548
26.3482,740,2.3871
26.3524,553,1.7839
26.3566,481,1.5516
26.3608,641,2.0677
26.3651,783,2.5258
