time_s,adc_raw,voltage
603.4447,458,1.4774
603.449,450,1.4516
603.4533,442,1.4258
603.4576,437,1.4097
603.4619,436,1.4065
603.4662,433,1.3968
603.4705,429,1.3839
603.4748,430,1.3871
603.4796,439,1.4161
603.4855,450,1.4516
603.49,458,1.4774
603.4944,461,1.4871
603.4987,460,1.4839
603.503,465,1.5
603.5073,469,1.5129
603.5116,471,1.5194
603.5159,471,1.5194
603.5203,471,1.5194
603.5247,472,1.5226
603.5289,474,1.529
603.5334,468,1.5097
603.5377,467,1.5065
603.542,468,1.5097
603.5463,470,1.5161
603.5505,463,1.4935
603.5548,446,1.4387
603.5591,433,1.3968
603.5634,429,1.3839
603.5676,440,1.4194
603.5718,454,1.4645
603.5761,457,1.4742
603.5803,451,1.4548
603.5846,447,1.4419
603.5889,447,1.4419
603.5931,449,1.4484
603.5974,448,1.4452
603.6016,445,1.4355
603.6059,446,1.4387
603.6101,458,1.4774
603.6144,462,1.4903
603.6187,459,1.4806
603.6229,458,1.4774
603.6272,462,1.4903
603.6315,456,1.471
603.6357,453,1.4613
603.64,450,1.4516
603.6443,450,1.4516
603.6485,453,1.4613
603.6528,455,1.4677
603.6571,457,1.4742
603.6613,458,1.4774
603.6656,458,1.4774
603.6698,459,1.4806
603.6741,460,1.4839
603.6783,464,1.4968
603.6826,466,1.5032
603.6868,470,1.5161
603.6912,475,1.5323
603.6954,478,1.5419
603.6997,482,1.5548
603.704,490,1.5806
603.7083,494,1.5935
603.7126,493,1.5903
603.7168,493,1.5903
603.7211,493,1.5903
603.7254,492,1.5871
603.7297,490,1.5806
603.734,486,1.5677
603.7383,474,1.529
603.7426,469,1.5129
603.747,468,1.5097
603.7513,465,1.5
603.7556,467,1.5065
603.7598,479,1.5452
603.7641,473,1.5258
603.7685,463,1.4935
603.7727,469,1.5129
603.777,473,1.5258
603.7814,475,1.5323
603.7861,480,1.5484
603.7906,480,1.5484
603.795,478,1.5419
603.7996,474,1.529
603.804,468,1.5097
603.8083,473,1.5258
603.8127,476,1.5355
603.817,485,1.5645
603.8213,478,1.5419
603.8256,475,1.5323
603.8299,472,1.5226
603.8342,495,1.5968
603.8385,535,1.7258
603.8429,596,1.9226
603.8472,674,2.1742
603.8514,738,2.3806
603.8558,706,2.2774
603.86,601,1.9387
603.8643,490,1.5806
603.8686,435,1.4032
603.8729,429,1.3839
603.8772,416,1.3419
603.8815,400,1.2903
603.8858,411,1.3258
603.8901,447,1.4419
603.8945,479,1.5452
603.8987,486,1.5677
603.903,476,1.5355
603.9073,478,1.5419
603.9116,486,1.5677
603.9159,487,1.571
603.9204,488,1.5742
603.9247,498,1.6065
603.929,509,1.6419
603.9333,516,1.6645
603.9376,505,1.629
603.9419,498,1.6065
603.9462,492,1.5871
603.9505,493,1.5903
603.9548,492,1.5871
603.9591,485,1.5645
603.9634,488,1.5742
603.9677,495,1.5968
603.972,490,1.5806
603.9763,493,1.5903
603.9806,494,1.5935
603.9849,500,1.6129
603.9892,505,1.629
603.9935,515,1.6613
603.9978,531,1.7129
604.0022,545,1.7581
604.0065,552,1.7806
604.0108,550,1.7742
604.0151,546,1.7613
604.0195,546,1.7613
604.0238,553,1.7839
604.0281,569,1.8355
604.0325,580,1.871
604.0368,580,1.871
604.0411,585,1.8871
604.0455,592,1.9097
604.0498,596,1.9226
604.0541,595,1.9194
604.0585,584,1.8839
604.0628,580,1.871
604.0672,582,1.8774
604.0715,592,1.9097
604.0758,596,1.9226
604.0802,582,1.8774
604.0845,559,1.8032
604.0889,533,1.7194
604.0933,517,1.6677
604.0976,500,1.6129
604.1019,491,1.5839
604.1062,491,1.5839
604.1105,483,1.5581
604.1147,465,1.5
604.119,447,1.4419
604.1234,446,1.4387
604.1277,453,1.4613
604.132,457,1.4742
604.1363,453,1.4613
604.1406,437,1.4097
604.1449,420,1.3548
604.1492,421,1.3581
604.1534,422,1.3613
604.1577,424,1.3677
604.162,429,1.3839
604.1663,430,1.3871
604.1706,436,1.4065
604.1749,438,1.4129
604.1792,431,1.3903
604.1835,432,1.3935
604.1878,432,1.3935
604.1921,429,1.3839
604.1964,429,1.3839
604.2008,434,1.4
604.2051,434,1.4
604.2094,426,1.3742
604.2138,427,1.3774
604.2181,441,1.4226
604.2225,460,1.4839
604.2268,465,1.5
604.2311,463,1.4935
604.2355,455,1.4677
604.2398,445,1.4355
604.2441,448,1.4452
604.2485,457,1.4742
604.2528,470,1.5161
604.2572,482,1.5548
604.2615,490,1.5806
604.2658,499,1.6097
604.2702,502,1.6194
604.2745,500,1.6129
604.2788,487,1.571
604.2831,476,1.5355
604.2875,478,1.5419
604.2918,491,1.5839
604.2961,497,1.6032
604.3004,490,1.5806
604.3047,480,1.5484
604.309,482,1.5548
604.3133,487,1.571
604.3176,493,1.5903
604.3219,494,1.5935
604.3262,490,1.5806
604.3305,479,1.5452
604.3348,467,1.5065
604.3391,465,1.5
604.3434,466,1.5032
604.3477,468,1.5097
604.352,470,1.5161
604.3563,472,1.5226
604.3606,487,1.571
604.3649,495,1.5968
604.3692,498,1.6065
604.3735,510,1.6452
604.3778,530,1.7097
604.3821,542,1.7484
604.3867,552,1.7806
604.3911,565,1.8226
604.3955,571,1.8419
604.3998,574,1.8516
604.4041,565,1.8226
604.4085,560,1.8065
604.4128,552,1.7806
604.4171,537,1.7323
604.4214,540,1.7419
604.4257,532,1.7161
604.43,521,1.6806
604.4343,505,1.629
604.4385,500,1.6129
604.4428,491,1.5839
604.4471,475,1.5323
604.4515,464,1.4968
604.4558,460,1.4839
604.46,457,1.4742
604.4643,459,1.4806
604.4686,460,1.4839
604.4729,456,1.471
604.4772,451,1.4548
604.4815,451,1.4548
604.4858,458,1.4774
604.4901,467,1.5065
604.4944,465,1.5
604.4989,459,1.4806
604.5032,474,1.529
604.5075,480,1.5484
604.5119,488,1.5742
604.5162,494,1.5935
604.5205,470,1.5161
604.5249,461,1.4871
604.5292,489,1.5774
604.5336,545,1.7581
604.5379,625,2.0161
604.5422,709,2.2871
604.5466,715,2.3065
604.5509,623,2.0097
604.5552,517,1.6677
604.5596,463,1.4935
604.5639,436,1.4065
604.5682,412,1.329
604.5726,397,1.2806
604.5769,394,1.271
604.5812,419,1.3516
604.5855,460,1.4839
604.5899,491,1.5839
604.5942,500,1.6129
604.5985,500,1.6129
604.6029,493,1.5903
604.6071,489,1.5774
604.6114,494,1.5935
604.6158,495,1.5968
604.6203,484,1.5613
604.6246,472,1.5226
604.6289,467,1.5065
604.6332,461,1.4871
604.6375,460,1.4839
604.6418,452,1.4581
604.646,445,1.4355
604.6503,456,1.471
604.6546,473,1.5258
604.6589,487,1.571
604.6632,503,1.6226
604.6675,518,1.671
604.6718,521,1.6806
604.6761,516,1.6645
604.6806,502,1.6194
604.685,496,1.6
604.6894,508,1.6387
604.6938,527,1.7
604.6982,538,1.7355
604.7025,539,1.7387
604.7068,536,1.729
604.7111,534,1.7226
604.7154,544,1.7548
604.7197,545,1.7581
604.724,544,1.7548
604.7283,547,1.7645
604.7326,552,1.7806
604.737,553,1.7839
604.7413,555,1.7903
604.7456,559,1.8032
604.7498,564,1.8194
604.7542,566,1.8258
604.7585,567,1.829
604.7627,570,1.8387
604.7671,561,1.8097
604.7714,548,1.7677
604.7757,536,1.729
604.78,529,1.7065
604.7843,518,1.671
604.7885,504,1.6258
604.7929,495,1.5968
604.7972,488,1.5742
604.8015,482,1.5548
604.8058,470,1.5161
604.8102,455,1.4677
604.8145,451,1.4548
604.8188,455,1.4677
604.8232,448,1.4452
604.8275,447,1.4419
604.8318,445,1.4355
604.8362,447,1.4419
604.8405,447,1.4419
604.8448,449,1.4484
604.8492,453,1.4613
604.8535,454,1.4645
604.8578,455,1.4677
604.8622,454,1.4645
604.8665,456,1.471
604.8708,459,1.4806
604.8752,456,1.471
604.8795,459,1.4806
604.8838,456,1.471
604.8882,451,1.4548
604.8925,450,1.4516
604.8968,456,1.471
604.9011,454,1.4645
604.9054,454,1.4645
604.9097,451,1.4548
604.914,450,1.4516
604.9183,462,1.4903
604.9227,464,1.4968
604.927,461,1.4871
604.9313,447,1.4419
604.9356,441,1.4226
604.9399,452,1.4581
604.9442,467,1.5065
604.9485,474,1.529
604.9528,476,1.5355
604.9571,477,1.5387
604.9614,477,1.5387
604.9657,473,1.5258
604.97,468,1.5097
604.9743,463,1.4935
604.9786,470,1.5161
604.9829,483,1.5581
604.9872,486,1.5677
604.9915,482,1.5548
604.9958,472,1.5226
605.0001,474,1.529
605.0044,483,1.5581
605.0088,480,1.5484
605.0131,476,1.5355
605.0174,477,1.5387
605.0217,479,1.5452
605.0261,477,1.5387
605.0304,470,1.5161
605.0348,468,1.5097
605.0391,475,1.5323
605.0434,476,1.5355
605.0478,474,1.529
605.0521,475,1.5323
605.0564,480,1.5484
605.0608,483,1.5581
605.0651,481,1.5516
605.0694,477,1.5387
605.0737,483,1.5581
605.0781,493,1.5903
605.0824,500,1.6129
605.0867,497,1.6032
605.0911,501,1.6161
605.0954,508,1.6387
605.0997,506,1.6323
605.1041,502,1.6194
605.1084,505,1.629
605.1127,511,1.6484
605.117,511,1.6484
605.1213,510,1.6452
605.1256,512,1.6516
605.1299,511,1.6484
605.1342,494,1.5935
605.1385,474,1.529
605.1428,479,1.5452
605.1471,489,1.5774
605.1514,488,1.5742
605.1557,476,1.5355
605.16,460,1.4839
605.1643,452,1.4581
605.1686,447,1.4419
605.1729,450,1.4516
605.1772,466,1.5032
605.1815,475,1.5323
605.1858,473,1.5258
605.1901,476,1.5355
605.1943,476,1.5355
605.1986,476,1.5355
605.2029,485,1.5645
605.2073,494,1.5935
605.2116,493,1.5903
605.216,489,1.5774
605.2205,483,1.5581
605.2249,472,1.5226
605.2292,477,1.5387
605.2336,502,1.6194
605.2379,554,1.7871
605.2422,629,2.029
605.2465,709,2.2871
605.2509,721,2.3258
605.2552,626,2.0194
605.2595,516,1.6645
605.2639,467,1.5065
605.2682,469,1.5129
605.2725,453,1.4613
605.2769,420,1.3548
605.2812,407,1.3129
605.2857,427,1.3774
605.2901,464,1.4968
605.2946,490,1.5806
605.2989,493,1.5903
605.3033,494,1.5935
605.3077,494,1.5935
605.312,489,1.5774
605.3164,490,1.5806
605.3207,488,1.5742
605.325,495,1.5968
605.3293,496,1.6
605.3336,500,1.6129
605.3379,505,1.629
605.3422,502,1.6194
605.3465,505,1.629
605.3508,507,1.6355
605.3552,500,1.6129
605.3595,483,1.5581
605.3638,481,1.5516
605.3681,492,1.5871
605.3724,506,1.6323
605.3767,512,1.6516
605.381,515,1.6613
605.3853,513,1.6548
605.3901,522,1.6839
605.3945,528,1.7032
605.3988,530,1.7097
605.4031,534,1.7226
605.4074,537,1.7323
605.4117,540,1.7419
605.416,540,1.7419
605.4203,543,1.7516
605.4246,545,1.7581
605.4289,549,1.771
605.4332,552,1.7806
605.4375,555,1.7903
605.4418,558,1.8
605.4461,559,1.8032
605.4504,564,1.8194
605.4547,572,1.8452
605.4591,571,1.8419
605.4634,566,1.8258
605.4676,562,1.8129
605.4722,568,1.8323
605.4766,576,1.8581
605.4809,577,1.8613
605.4851,579,1.8677
605.4898,559,1.8032
605.4942,540,1.7419
605.4986,522,1.6839
605.503,487,1.571
605.5091,453,1.4613
605.5136,446,1.4387
605.518,440,1.4194
605.523,436,1.4065
605.5276,434,1.4
605.5321,434,1.4
605.5365,434,1.4
605.5408,432,1.3935
605.5451,433,1.3968
605.5494,436,1.4065
605.5536,432,1.3935
605.5579,432,1.3935
605.5622,434,1.4
605.5665,435,1.4032
605.5707,436,1.4065
605.575,441,1.4226
605.58,443,1.429
605.5844,439,1.4161
605.5888,436,1.4065
605.5932,440,1.4194
605.5974,443,1.429
605.6018,453,1.4613
605.6061,465,1.5
605.6104,469,1.5129
605.6147,468,1.5097
605.619,474,1.529
605.6233,477,1.5387
605.6276,477,1.5387
605.6318,478,1.5419
605.636,481,1.5516
605.6403,484,1.5613
605.6446,484,1.5613
605.6488,487,1.571
605.6531,488,1.5742
605.6573,483,1.5581
605.6623,485,1.5645
605.6666,496,1.6
605.6708,501,1.6161
605.6751,499,1.6097
605.6793,494,1.5935
605.6836,493,1.5903
605.6879,492,1.5871
605.6921,494,1.5935
605.6964,492,1.5871
605.7006,492,1.5871
605.7049,495,1.5968
605.7092,498,1.6065
605.7135,502,1.6194
605.7177,502,1.6194
605.722,496,1.6
605.7263,505,1.629
605.7306,525,1.6935
605.7348,516,1.6645
605.7391,482,1.5548
605.7434,458,1.4774
605.7477,452,1.4581
605.7519,461,1.4871
605.7562,467,1.5065
605.7606,462,1.4903
605.765,468,1.5097
605.7692,475,1.5323
605.7735,472,1.5226
605.7778,469,1.5129
605.782,463,1.4935
605.7863,466,1.5032
605.7906,482,1.5548
605.7949,494,1.5935
605.7991,498,1.6065
605.8034,502,1.6194
605.8077,512,1.6516
605.812,514,1.6581
605.8163,506,1.6323
605.8205,491,1.5839
605.8248,487,1.571
605.8291,489,1.5774
605.8333,482,1.5548
605.8376,474,1.529
605.8422,470,1.5161
605.8465,467,1.5065
605.8508,468,1.5097
605.855,462,1.4903
605.8593,462,1.4903
605.8636,472,1.5226
605.8678,482,1.5548
605.8721,486,1.5677
605.8764,482,1.5548
605.8806,484,1.5613
605.8849,481,1.5516
605.8892,476,1.5355
605.8934,472,1.5226
605.8977,473,1.5258
605.9019,472,1.5226
605.9062,474,1.529
605.9105,477,1.5387
605.9148,480,1.5484
605.9191,478,1.5419
605.9234,481,1.5516
605.9277,486,1.5677
605.932,482,1.5548
605.9362,480,1.5484
605.9405,484,1.5613
605.9448,499,1.6097
605.9491,524,1.6903
605.9533,570,1.8387
605.9576,640,2.0645
605.9619,712,2.2968
605.9661,718,2.3161
605.9704,634,2.0452
605.9747,525,1.6935
605.979,461,1.4871
605.9832,448,1.4452
605.9875,437,1.4097
605.9918,414,1.3355
605.9961,410,1.3226
606.0003,427,1.3774
606.0046,455,1.4677
606.0089,483,1.5581
606.0132,493,1.5903
606.0176,490,1.5806
606.0218,479,1.5452
606.0261,472,1.5226
606.0305,477,1.5387
606.0348,487,1.571
606.039,489,1.5774
606.0433,478,1.5419
606.0477,479,1.5452
606.052,478,1.5419
606.0563,480,1.5484
606.0606,486,1.5677
606.0649,491,1.5839
606.0692,495,1.5968
606.0735,502,1.6194
606.0778,502,1.6194
606.0821,502,1.6194
606.0864,504,1.6258
606.0907,502,1.6194
606.0951,507,1.6355
606.0993,508,1.6387
606.1036,516,1.6645
606.1079,519,1.6742
606.1122,520,1.6774
606.1165,531,1.7129
606.1208,539,1.7387
606.1251,548,1.7677
606.1293,556,1.7935
606.1336,561,1.8097
606.1378,558,1.8
606.1421,554,1.7871
606.1464,553,1.7839
606.1506,556,1.7935
606.1549,556,1.7935
606.1592,559,1.8032
606.1634,564,1.8194
606.1677,571,1.8419
606.172,571,1.8419
606.1763,568,1.8323
606.181,563,1.8161
606.1866,560,1.8065
606.1909,559,1.8032
606.1953,556,1.7935
606.1996,549,1.771
606.2039,538,1.7355
606.2081,518,1.671
606.2124,499,1.6097
606.2167,486,1.5677
606.221,475,1.5323
606.2253,472,1.5226
606.2295,473,1.5258
606.2338,467,1.5065
606.2381,456,1.471
606.2424,439,1.4161
606.2467,424,1.3677
606.2509,420,1.3548
606.2552,420,1.3548
606.2595,418,1.3484
606.2637,420,1.3548
606.268,422,1.3613
606.2723,425,1.371
606.2766,426,1.3742
606.2809,425,1.371
606.2851,426,1.3742
606.2894,432,1.3935
606.2937,435,1.4032
606.298,441,1.4226
606.3023,442,1.4258
606.3065,443,1.429
606.3108,447,1.4419
606.3151,450,1.4516
606.3194,455,1.4677
606.3237,455,1.4677
606.328,453,1.4613
606.3323,454,1.4645
606.3367,455,1.4677
606.341,460,1.4839
606.3453,465,1.5
606.3495,471,1.5194
606.3538,475,1.5323
606.3581,474,1.529
606.3624,472,1.5226
606.3667,472,1.5226
606.371,476,1.5355
606.3753,473,1.5258
606.3796,469,1.5129
606.3839,470,1.5161
606.3882,469,1.5129
606.3925,467,1.5065
606.3967,469,1.5129
606.4011,466,1.5032
606.4054,466,1.5032
606.4096,467,1.5065
606.414,470,1.5161
606.4183,470,1.5161
606.4226,473,1.5258
606.4268,472,1.5226
606.4311,468,1.5097
606.4354,472,1.5226
606.4397,475,1.5323
606.4439,476,1.5355
606.4482,480,1.5484
606.4525,481,1.5516
606.4567,479,1.5452
606.461,471,1.5194
606.4653,465,1.5
606.4696,461,1.4871
606.4739,459,1.4806
606.4781,452,1.4581
606.4824,452,1.4581
606.4868,453,1.4613
606.4912,455,1.4677
606.4955,463,1.4935
606.4999,466,1.5032
606.5042,468,1.5097
606.5084,475,1.5323
606.5127,476,1.5355
606.5171,483,1.5581
606.5214,485,1.5645
606.5257,483,1.5581
606.5299,489,1.5774
606.5342,499,1.6097
606.5385,507,1.6355
606.5428,510,1.6452
606.5471,512,1.6516
606.5513,512,1.6516
606.5556,512,1.6516
606.5598,508,1.6387
606.5641,495,1.5968
606.5684,485,1.5645
606.5727,480,1.5484
606.577,478,1.5419
606.5813,481,1.5516
606.5856,482,1.5548
606.5898,479,1.5452
606.5941,474,1.529
606.5984,468,1.5097
606.6026,465,1.5
606.607,467,1.5065
606.6112,466,1.5032
606.6155,462,1.4903
606.62,460,1.4839
606.6243,459,1.4806
606.6286,462,1.4903
606.6329,465,1.5
606.6372,462,1.4903
606.6415,458,1.4774
606.6458,461,1.4871
606.6501,460,1.4839
606.6544,453,1.4613
606.6587,456,1.471
606.663,472,1.5226
606.6673,509,1.6419
606.6716,558,1.8
606.6759,614,1.9806
606.6802,668,2.1548
606.6846,671,2.1645
606.6889,587,1.8935
606.6932,498,1.6065
606.6975,460,1.4839
606.7018,475,1.5323
606.7061,487,1.571
606.7104,455,1.4677
606.7147,422,1.3613
606.719,410,1.3226
606.7233,426,1.3742
606.7276,460,1.4839
606.7318,485,1.5645
606.7361,490,1.5806
606.7403,489,1.5774
606.7446,488,1.5742
606.7489,493,1.5903
606.7531,489,1.5774
606.7574,486,1.5677
606.7617,490,1.5806
606.7659,500,1.6129
606.7702,515,1.6613
606.7745,514,1.6581
606.7788,512,1.6516
606.783,506,1.6323
606.7873,503,1.6226
606.7916,504,1.6258
606.7959,516,1.6645
606.8001,529,1.7065
606.8044,537,1.7323
606.8087,544,1.7548
606.8131,550,1.7742
606.8174,544,1.7548
606.8217,536,1.729
606.826,539,1.7387
606.8303,543,1.7516
606.8346,550,1.7742
606.8389,553,1.7839
606.8432,544,1.7548
606.8475,531,1.7129
606.8518,527,1.7
606.8561,528,1.7032
606.8604,533,1.7194
606.8646,532,1.7161
606.869,540,1.7419
606.8734,546,1.7613
606.8776,542,1.7484
606.8819,536,1.729
606.8862,535,1.7258
606.8905,532,1.7161
606.8948,536,1.729
606.8991,548,1.7677
606.9034,553,1.7839
606.9076,554,1.7871
606.9119,552,1.7806
606.9163,550,1.7742
606.9206,549,1.771
606.9248,543,1.7516
606.9291,530,1.7097
606.9334,505,1.629
606.9377,481,1.5516
606.9419,462,1.4903
606.9462,451,1.4548
606.9505,443,1.429
606.9548,439,1.4161
606.959,440,1.4194
606.9633,440,1.4194
606.9676,431,1.3903
606.9719,426,1.3742
606.9762,421,1.3581
606.9804,415,1.3387
606.9847,412,1.329
606.989,418,1.3484
606.9933,426,1.3742
606.9975,424,1.3677
607.0018,423,1.3645
607.0061,428,1.3806
607.0104,438,1.4129
607.0147,441,1.4226
607.019,442,1.4258
607.0233,445,1.4355
607.0276,444,1.4323
607.0319,447,1.4419
607.0362,451,1.4548
607.0404,447,1.4419
607.0447,441,1.4226
607.049,436,1.4065
607.0533,436,1.4065
607.0576,427,1.3774
607.0618,431,1.3903
607.0662,442,1.4258
607.0704,453,1.4613
607.0748,459,1.4806
607.0791,462,1.4903
607.0835,460,1.4839
607.0916,454,1.4645
607.0961,454,1.4645
607.1004,454,1.4645
607.1048,455,1.4677
607.1091,457,1.4742
607.1134,461,1.4871
607.1178,468,1.5097
607.1221,476,1.5355
607.1264,479,1.5452
607.1307,481,1.5516
607.135,481,1.5516
607.1393,479,1.5452
607.1436,477,1.5387
607.1479,478,1.5419
607.1522,480,1.5484
607.1565,479,1.5452
607.1608,483,1.5581
607.1651,485,1.5645
607.1694,483,1.5581
607.1737,486,1.5677
607.1786,489,1.5774
607.1829,494,1.5935
607.1872,500,1.6129
607.1915,504,1.6258
607.1958,507,1.6355
607.2001,510,1.6452
607.2044,510,1.6452
607.2087,510,1.6452
607.213,510,1.6452
607.2173,507,1.6355
607.2217,501,1.6161
607.226,498,1.6065
607.2303,493,1.5903
607.2346,487,1.571
607.2389,485,1.5645
607.2432,486,1.5677
607.2475,495,1.5968
607.2518,497,1.6032
607.2561,497,1.6032
607.2604,496,1.6
607.2647,491,1.5839
607.2689,484,1.5613
607.2733,484,1.5613
607.2775,484,1.5613
607.2819,487,1.571
607.2862,491,1.5839
607.2904,493,1.5903
607.2947,492,1.5871
607.299,489,1.5774
607.3033,491,1.5839
607.3076,490,1.5806
607.3119,490,1.5806
607.3162,487,1.571
607.3207,476,1.5355
607.325,477,1.5387
607.3294,491,1.5839
607.3337,518,1.671
607.338,566,1.8258
607.3424,628,2.0258
607.3467,685,2.2097
607.351,672,2.1677
607.3554,566,1.8258
607.3597,464,1.4968
607.3641,431,1.3903
607.3684,446,1.4387
607.3727,445,1.4355
607.3771,427,1.3774
607.3817,410,1.3226
607.3875,440,1.4194
607.3919,485,1.5645
607.3964,509,1.6419
607.4007,520,1.6774
607.4051,529,1.7065
607.4094,539,1.7387
607.4137,539,1.7387
607.4182,543,1.7516
607.4225,547,1.7645
607.4269,545,1.7581
607.4312,540,1.7419
607.4355,535,1.7258
607.4397,531,1.7129
607.4441,529,1.7065
607.4483,527,1.7
607.4526,527,1.7
607.457,525,1.6935
607.4613,521,1.6806
607.4656,523,1.6871
607.4699,527,1.7
607.4742,530,1.7097
607.4785,531,1.7129
607.4828,533,1.7194
607.4871,538,1.7355
607.4914,541,1.7452
607.4957,549,1.771
607.5,554,1.7871
607.5043,556,1.7935
607.5086,551,1.7774
607.5129,551,1.7774
607.5172,557,1.7968
607.5215,562,1.8129
607.5258,571,1.8419
607.5302,582,1.8774
607.5345,586,1.8903
607.5388,586,1.8903
607.5432,586,1.8903
607.5475,583,1.8806
607.5518,573,1.8484
607.5561,566,1.8258
607.5605,555,1.7903
607.5648,550,1.7742
607.5692,549,1.771
607.5735,553,1.7839
607.5778,548,1.7677
607.5822,544,1.7548
607.5865,538,1.7355
607.5908,530,1.7097
607.5952,520,1.6774
607.5995,510,1.6452
607.6038,505,1.629
607.6082,492,1.5871
607.6125,478,1.5419
607.6168,459,1.4806
607.6213,448,1.4452
607.6256,442,1.4258
607.63,439,1.4161
607.6343,440,1.4194
607.6385,434,1.4
607.6428,434,1.4
607.6471,437,1.4097
607.6514,444,1.4323
607.6557,446,1.4387
607.66,446,1.4387
607.6643,446,1.4387
607.6686,446,1.4387
607.6729,445,1.4355
607.6772,448,1.4452
607.6815,454,1.4645
607.6858,461,1.4871
607.6901,469,1.5129
607.6944,474,1.529
607.6987,477,1.5387
607.703,483,1.5581
607.7073,473,1.5258
607.7116,468,1.5097
607.7159,465,1.5
607.7204,464,1.4968
607.7247,467,1.5065
607.729,470,1.5161
607.7334,475,1.5323
607.7377,475,1.5323
607.7421,471,1.5194
607.7464,472,1.5226
607.7507,479,1.5452
607.7551,484,1.5613
607.7594,483,1.5581
607.7637,481,1.5516
607.7681,480,1.5484
607.7724,485,1.5645
607.7767,481,1.5516
607.7811,486,1.5677
607.7854,489,1.5774
607.7897,490,1.5806
607.7941,487,1.571
607.7984,486,1.5677
607.8027,484,1.5613
607.8071,489,1.5774
607.8114,493,1.5903
607.8157,490,1.5806
607.82,489,1.5774
607.8243,491,1.5839
607.8286,489,1.5774
607.8329,488,1.5742
607.8372,485,1.5645
607.8415,475,1.5323
607.8457,475,1.5323
607.85,476,1.5355
607.8543,476,1.5355
607.8585,475,1.5323
607.8628,471,1.5194
607.8671,479,1.5452
607.8714,489,1.5774
607.8756,500,1.6129
607.8799,511,1.6484
607.8842,514,1.6581
607.8884,508,1.6387
607.8927,512,1.6516
607.897,520,1.6774
607.9012,526,1.6968
607.9055,530,1.7097
607.9097,533,1.7194
607.914,531,1.7129
607.9183,523,1.6871
607.9225,504,1.6258
607.9268,494,1.5935
607.9312,486,1.5677
607.9355,480,1.5484
607.9398,481,1.5516
607.9441,478,1.5419
607.9484,478,1.5419
607.9527,481,1.5516
607.957,473,1.5258
607.9613,478,1.5419
607.9656,483,1.5581
607.9699,482,1.5548
607.9742,462,1.4903
607.9785,455,1.4677
607.9829,457,1.4742
607.9877,465,1.5
607.9921,472,1.5226
607.9965,474,1.529
608.0008,471,1.5194
608.0051,468,1.5097
608.0095,474,1.529
608.0138,483,1.5581
608.0181,479,1.5452
608.0224,468,1.5097
608.0267,475,1.5323
608.031,496,1.6
608.0353,543,1.7516
608.0396,616,1.9871
608.0439,694,2.2387
608.0481,739,2.3839
608.0524,670,2.1613
608.0567,559,1.8032
608.061,487,1.571
608.0652,478,1.5419
608.0695,472,1.5226
608.0738,436,1.4065
608.0781,404,1.3032
608.0823,405,1.3065
608.0866,432,1.3935
608.0909,464,1.4968
608.0952,478,1.5419
608.0994,481,1.5516
608.1037,478,1.5419
608.1079,475,1.5323
608.1122,474,1.529
608.1165,469,1.5129
608.1208,470,1.5161
608.125,480,1.5484
608.1293,485,1.5645
608.1336,487,1.571
608.1379,493,1.5903
608.1422,495,1.5968
608.1465,491,1.5839
608.1508,490,1.5806
608.1551,487,1.571
608.1594,486,1.5677
608.1637,493,1.5903
608.168,500,1.6129
608.1723,500,1.6129
608.1766,500,1.6129
608.1809,501,1.6161
608.1852,504,1.6258
608.1895,507,1.6355
608.1938,522,1.6839
608.1981,528,1.7032
608.2024,531,1.7129
608.2067,530,1.7097
608.211,536,1.729
608.2153,543,1.7516
608.2196,542,1.7484
608.224,535,1.7258
608.2283,534,1.7226
608.2326,538,1.7355
608.237,540,1.7419
608.2413,543,1.7516
608.2456,551,1.7774
608.2499,553,1.7839
608.2542,557,1.7968
608.2585,560,1.8065
608.2629,560,1.8065
608.2673,559,1.8032
608.2715,558,1.8
608.2758,553,1.7839
608.2801,548,1.7677
608.2844,545,1.7581
608.2889,541,1.7452
608.2933,529,1.7065
608.2977,517,1.6677
608.302,513,1.6548
608.3063,508,1.6387
608.3106,499,1.6097
608.3149,486,1.5677
608.3191,474,1.529
608.3234,466,1.5032
608.3278,454,1.4645
608.3321,439,1.4161
608.3364,432,1.3935
608.3406,432,1.3935
608.3449,432,1.3935
608.3491,431,1.3903
608.3534,434,1.4
608.3576,435,1.4032
608.3619,444,1.4323
608.3662,449,1.4484
608.3705,449,1.4484
608.3748,447,1.4419
608.3791,449,1.4484
608.3834,455,1.4677
608.3877,461,1.4871
608.392,462,1.4903
608.3963,462,1.4903
608.4006,462,1.4903
608.4049,469,1.5129
608.4092,469,1.5129
608.4134,469,1.5129
608.4177,470,1.5161
608.422,469,1.5129
608.4263,470,1.5161
608.4306,472,1.5226
608.435,474,1.529
608.4393,468,1.5097
608.4436,469,1.5129
608.448,472,1.5226
608.4524,477,1.5387
608.4567,483,1.5581
608.461,486,1.5677
608.4654,490,1.5806
608.4697,494,1.5935
608.474,492,1.5871
608.4784,493,1.5903
608.4827,497,1.6032
608.4871,505,1.629
608.4914,506,1.6323
608.4957,495,1.5968
608.5001,485,1.5645
608.5044,489,1.5774
608.5087,494,1.5935
608.5131,485,1.5645
608.5174,479,1.5452
608.5217,480,1.5484
608.5261,482,1.5548
608.5304,485,1.5645
608.5347,479,1.5452
608.539,471,1.5194
608.5433,461,1.4871
608.5476,459,1.4806
608.5519,465,1.5
608.5562,475,1.5323
608.5605,484,1.5613
608.5648,494,1.5935
608.5691,494,1.5935
608.5734,490,1.5806
608.5777,487,1.571
608.582,484,1.5613
608.5863,488,1.5742
608.5905,498,1.6065
608.5949,502,1.6194
608.5991,497,1.6032
608.6034,488,1.5742
608.6077,491,1.5839
608.612,496,1.6
608.6163,505,1.629
608.6206,509,1.6419
608.6249,512,1.6516
608.6292,514,1.6581
608.6335,525,1.6935
608.6379,537,1.7323
608.6422,545,1.7581
608.6465,542,1.7484
608.6508,545,1.7581
608.6552,540,1.7419
608.6595,534,1.7226
608.6638,528,1.7032
608.6682,522,1.6839
608.6725,511,1.6484
608.6768,500,1.6129
608.6811,490,1.5806
608.6855,481,1.5516
608.6898,474,1.529
608.6941,470,1.5161
608.6985,466,1.5032
608.7028,464,1.4968
608.7072,464,1.4968
608.7115,464,1.4968
608.7158,464,1.4968
608.7202,471,1.5194
608.7245,475,1.5323
608.7288,477,1.5387
608.7332,475,1.5323
608.7375,470,1.5161
608.7418,464,1.4968
608.7461,465,1.5
608.7504,466,1.5032
608.7547,462,1.4903
608.759,458,1.4774
608.7633,462,1.4903
608.7676,472,1.5226
608.7719,495,1.5968
608.7761,531,1.7129
608.7804,586,1.8903
608.7847,663,2.1387
608.789,726,2.3419
608.7933,682,2.2
608.7976,570,1.8387
608.8019,477,1.5387
608.8062,453,1.4613
608.8105,453,1.4613
608.8148,435,1.4032
608.8191,411,1.3258
608.8234,409,1.3194
608.8277,436,1.4065
608.8321,474,1.529
608.8364,501,1.6161
608.8407,512,1.6516
608.8451,506,1.6323
608.8494,507,1.6355
608.8537,504,1.6258
608.8581,501,1.6161
608.8624,503,1.6226
608.8672,502,1.6194
608.8715,501,1.6161
608.8758,506,1.6323
608.8802,508,1.6387
608.8847,508,1.6387
608.8892,512,1.6516
608.8937,514,1.6581
608.8981,515,1.6613
608.9025,518,1.671
608.9068,521,1.6806
608.9112,508,1.6387
608.9155,509,1.6419
608.9199,513,1.6548
608.9243,522,1.6839
608.9286,526,1.6968
608.933,527,1.7
608.9373,521,1.6806
608.9416,524,1.6903
608.9459,528,1.7032
608.9502,535,1.7258
608.9545,535,1.7258
608.9588,533,1.7194
608.9631,536,1.729
608.9674,538,1.7355
608.9717,541,1.7452
608.9759,545,1.7581
608.9802,552,1.7806
608.9845,559,1.8032
608.9888,558,1.8
608.9931,566,1.8258
608.9974,562,1.8129
609.0017,556,1.7935
609.006,548,1.7677
609.0103,544,1.7548
609.0146,543,1.7516
609.0189,540,1.7419
609.0232,535,1.7258
609.0275,526,1.6968
609.0318,518,1.671
609.0361,514,1.6581
609.0404,509,1.6419
609.0447,496,1.6
609.0491,489,1.5774
609.0534,477,1.5387
609.0577,462,1.4903
609.062,452,1.4581
609.0664,446,1.4387
609.0707,444,1.4323
609.075,436,1.4065
609.0793,431,1.3903
609.0837,435,1.4032
609.088,436,1.4065
609.0924,433,1.3968
609.0967,431,1.3903
609.101,431,1.3903
609.1053,430,1.3871
609.1097,432,1.3935
609.114,433,1.3968
609.1183,433,1.3968
609.1227,435,1.4032
609.127,440,1.4194
609.1314,444,1.4323
609.1358,440,1.4194
609.1402,431,1.3903
609.1445,440,1.4194
609.1488,456,1.471
609.1531,465,1.5
609.1573,466,1.5032
609.1616,467,1.5065
609.1659,472,1.5226
609.1702,474,1.529
609.1745,474,1.529
609.1788,458,1.4774
609.1831,431,1.3903
609.1876,418,1.3484
609.192,414,1.3355
609.1964,412,1.329
609.2007,415,1.3387
609.205,423,1.3645
609.2093,430,1.3871
609.2136,428,1.3806
609.2179,424,1.3677
609.2222,422,1.3613
609.2265,428,1.3806
609.2308,434,1.4
609.2351,437,1.4097
609.2394,436,1.4065
609.2437,436,1.4065
609.248,441,1.4226
609.2523,450,1.4516
609.2566,455,1.4677
609.2608,462,1.4903
609.2651,463,1.4935
609.2694,467,1.5065
609.2737,471,1.5194
609.278,470,1.5161
609.2823,467,1.5065
609.2866,469,1.5129
609.2909,485,1.5645
609.2952,495,1.5968
609.2995,496,1.6
609.3038,498,1.6065
609.3081,496,1.6
609.3124,495,1.5968
609.3167,494,1.5935
609.321,497,1.6032
609.3252,503,1.6226
609.3295,506,1.6323
609.3338,509,1.6419
609.3381,515,1.6613
609.3424,516,1.6645
609.3468,525,1.6935
609.3511,546,1.7613
609.3554,537,1.7323
609.3598,508,1.6387
609.3641,496,1.6
609.3684,493,1.5903
609.3728,495,1.5968
609.3771,493,1.5903
609.3815,500,1.6129
609.3858,513,1.6548
609.3901,502,1.6194
609.3945,483,1.5581
609.3988,472,1.5226
609.4031,470,1.5161
609.4075,471,1.5194
609.4118,481,1.5516
609.4162,490,1.5806
609.4205,491,1.5839
609.4248,486,1.5677
609.4291,482,1.5548
609.4334,488,1.5742
609.4377,494,1.5935
609.442,497,1.6032
609.4464,505,1.629
609.4507,507,1.6355
609.455,501,1.6161
609.4593,493,1.5903
609.4636,490,1.5806
609.4678,493,1.5903
609.4722,494,1.5935
609.4765,501,1.6161
609.4808,506,1.6323
609.485,505,1.629
609.4894,498,1.6065
609.4937,487,1.571
609.498,480,1.5484
609.5023,480,1.5484
609.5066,485,1.5645
609.5109,487,1.571
609.5152,484,1.5613
609.5195,495,1.5968
609.5238,524,1.6903
609.5281,569,1.8355
609.5324,634,2.0452
609.5367,704,2.271
609.541,739,2.3839
609.5453,664,2.1419
609.5496,545,1.7581
609.554,470,1.5161
609.5583,462,1.4903
609.5625,464,1.4968
609.5669,438,1.4129
609.5712,416,1.3419
609.5755,423,1.3645
609.5798,455,1.4677
609.5841,496,1.6
609.5884,516,1.6645
609.5927,517,1.6677
609.5971,510,1.6452
609.6015,503,1.6226
609.6058,499,1.6097
609.6101,504,1.6258
609.6144,505,1.629
609.6187,501,1.6161
609.623,499,1.6097
609.6273,503,1.6226
609.6315,504,1.6258
609.6358,499,1.6097
609.6402,503,1.6226
609.6445,502,1.6194
609.6488,502,1.6194
609.6531,504,1.6258
609.6573,511,1.6484
609.6616,514,1.6581
609.666,514,1.6581
609.6702,520,1.6774
609.6745,521,1.6806
609.6788,522,1.6839
609.6832,523,1.6871
609.6875,506,1.6323
609.6918,500,1.6129
609.6961,516,1.6645
609.7004,535,1.7258
609.7047,544,1.7548
609.709,542,1.7484
609.7133,531,1.7129
609.7176,531,1.7129
609.7219,534,1.7226
609.7263,539,1.7387
609.7305,541,1.7452
609.7348,540,1.7419
609.7391,542,1.7484
609.7434,544,1.7548
609.7478,542,1.7484
609.7521,547,1.7645
609.7564,558,1.8
609.7607,568,1.8323
609.765,550,1.7742
609.7693,527,1.7
609.7736,511,1.6484
609.7779,488,1.5742
609.7822,470,1.5161
609.7867,466,1.5032
609.7912,469,1.5129
609.7956,474,1.529
609.8,478,1.5419
609.8044,474,1.529
609.8088,463,1.4935
609.8131,453,1.4613
609.8175,449,1.4484
609.8218,443,1.429
609.8262,437,1.4097
609.8305,436,1.4065
609.8348,435,1.4032
609.8391,443,1.429
609.8435,452,1.4581
609.8478,455,1.4677
609.8521,453,1.4613
609.8564,452,1.4581
609.8607,451,1.4548
609.865,450,1.4516
609.8693,455,1.4677
609.8736,457,1.4742
609.8779,454,1.4645
609.8821,448,1.4452
609.8864,445,1.4355
609.8907,452,1.4581
609.895,457,1.4742
609.8993,457,1.4742
609.9036,465,1.5
609.9079,472,1.5226
609.9122,474,1.529
609.9165,456,1.471
609.9208,435,1.4032
609.9251,437,1.4097
609.9294,449,1.4484
609.9337,463,1.4935
609.938,463,1.4935
609.9424,446,1.4387
609.9467,440,1.4194
609.9511,436,1.4065
609.9554,433,1.3968
609.9597,430,1.3871
609.9641,433,1.3968
609.9684,446,1.4387
609.9728,460,1.4839
609.9771,476,1.5355
609.9815,480,1.5484
609.9858,481,1.5516
609.9901,482,1.5548
609.9945,486,1.5677
609.9988,476,1.5355
610.0031,477,1.5387
610.0075,479,1.5452
610.0118,481,1.5516
610.0162,480,1.5484
610.0207,483,1.5581
610.025,489,1.5774
610.0293,493,1.5903
610.0337,492,1.5871
610.038,493,1.5903
610.0425,494,1.5935
610.0468,491,1.5839
610.0511,490,1.5806
610.0554,485,1.5645
610.0597,489,1.5774
610.064,495,1.5968
610.0683,495,1.5968
610.0726,491,1.5839
610.0769,492,1.5871
610.0812,498,1.6065
610.0855,496,1.6
610.0899,488,1.5742
610.0944,483,1.5581
610.0988,484,1.5613
610.1032,486,1.5677
610.1075,482,1.5548
610.1119,468,1.5097
610.1162,472,1.5226
610.1205,480,1.5484
610.1248,489,1.5774
610.1291,501,1.6161
610.1334,513,1.6548
610.1377,510,1.6452
610.142,508,1.6387
610.1464,511,1.6484
610.1507,525,1.6935
610.155,540,1.7419
610.1593,544,1.7548
610.1636,540,1.7419
610.1679,532,1.7161
610.1722,530,1.7097
610.1765,523,1.6871
610.1808,513,1.6548
610.1851,500,1.6129
610.1894,490,1.5806
610.1937,487,1.571
610.1983,485,1.5645
610.2026,482,1.5548
610.2069,480,1.5484
610.2112,481,1.5516
610.2155,484,1.5613
610.2198,483,1.5581
610.2241,486,1.5677
610.2284,487,1.571
610.2327,491,1.5839
610.2371,486,1.5677
610.2414,479,1.5452
610.2457,479,1.5452
610.25,480,1.5484
610.2543,478,1.5419
610.2586,479,1.5452
610.2629,476,1.5355
610.2672,475,1.5323
610.2715,472,1.5226
610.2758,464,1.4968
610.2801,461,1.4871
610.2844,481,1.5516
610.2887,514,1.6581
610.293,566,1.8258
610.2973,634,2.0452
610.3017,708,2.2839
610.306,718,2.3161
610.3103,625,2.0161
610.3147,513,1.6548
610.319,457,1.4742
610.3234,455,1.4677
610.3277,446,1.4387
610.3319,419,1.3516
610.3362,410,1.3226
610.3406,430,1.3871
610.3449,467,1.5065
610.3496,497,1.6032
610.354,505,1.629
610.3583,506,1.6323
610.3626,503,1.6226
610.3669,505,1.629
610.3712,499,1.6097
610.3755,495,1.5968
610.3804,485,1.5645
610.3848,477,1.5387
610.3891,478,1.5419
610.3934,477,1.5387
610.3977,472,1.5226
610.402,474,1.529
610.4063,480,1.5484
610.4106,484,1.5613
610.4149,486,1.5677
610.4192,487,1.571
610.4236,489,1.5774
610.4279,493,1.5903
610.4322,497,1.6032
610.4365,508,1.6387
610.4408,531,1.7129
610.4451,545,1.7581
610.4494,555,1.7903
610.4537,563,1.8161
610.4584,562,1.8129
610.4627,556,1.7935
610.4671,563,1.8161
610.4714,568,1.8323
610.4757,568,1.8323
610.48,563,1.8161
610.4843,563,1.8161
610.4886,558,1.8
610.4929,557,1.7968
610.4972,558,1.8
610.5015,561,1.8097
610.5058,566,1.8258
610.5117,538,1.7355
610.5168,533,1.7194
610.5213,535,1.7258
610.526,533,1.7194
610.5305,530,1.7097
610.5352,524,1.6903
610.5396,520,1.6774
610.5439,517,1.6677
610.5482,517,1.6677
610.5525,504,1.6258
610.5568,492,1.5871
610.5646,468,1.5097
610.5689,460,1.4839
610.5732,447,1.4419
610.5775,443,1.429
610.5817,433,1.3968
610.586,425,1.371
610.5903,432,1.3935
610.5945,447,1.4419
610.5988,461,1.4871
610.603,472,1.5226
610.6073,475,1.5323
610.6116,475,1.5323
610.6158,473,1.5258
610.6201,468,1.5097
610.6244,469,1.5129
610.6287,473,1.5258
610.6329,480,1.5484
610.6372,479,1.5452
610.6414,479,1.5452
610.6457,481,1.5516
610.65,483,1.5581
610.6543,485,1.5645
610.6586,486,1.5677
610.6629,487,1.571
610.6673,488,1.5742
610.6716,490,1.5806
610.6759,488,1.5742
610.6802,485,1.5645
610.6846,484,1.5613
610.689,487,1.571
610.6934,493,1.5903
610.6979,496,1.6
610.7022,498,1.6065
610.7066,496,1.6
610.711,497,1.6032
610.7153,487,1.571
610.7197,480,1.5484
610.724,482,1.5548
610.7284,483,1.5581
610.7327,479,1.5452
610.7371,476,1.5355
610.7414,474,1.529
610.7457,464,1.4968
610.7501,471,1.5194
610.7544,474,1.529
610.7587,473,1.5258
610.763,474,1.529
610.7673,479,1.5452
610.7716,478,1.5419
610.7759,471,1.5194
610.7802,466,1.5032
610.7845,449,1.4484
610.7888,440,1.4194
610.7931,451,1.4548
610.7974,463,1.4935
610.8017,475,1.5323
610.8059,484,1.5613
610.8103,487,1.571
610.8146,488,1.5742
610.8189,488,1.5742
610.8232,491,1.5839
610.8275,496,1.6
610.8318,493,1.5903
610.8361,489,1.5774
610.8404,479,1.5452
610.8447,466,1.5032
610.849,462,1.4903
610.8533,462,1.4903
610.8576,465,1.5
610.8619,462,1.4903
610.8662,468,1.5097
610.8705,466,1.5032
610.8748,470,1.5161
610.8791,466,1.5032
610.8834,465,1.5
610.8877,473,1.5258
610.892,478,1.5419
610.8963,480,1.5484
610.9006,477,1.5387
610.9049,476,1.5355
610.9092,481,1.5516
610.9135,483,1.5581
610.9178,487,1.571
610.9221,494,1.5935
610.9264,505,1.629
610.9307,504,1.6258
610.935,485,1.5645
610.9393,468,1.5097
610.9436,471,1.5194
610.9478,489,1.5774
610.9521,500,1.6129
610.9564,503,1.6226
610.9607,508,1.6387
610.965,507,1.6355
610.9693,495,1.5968
610.9736,481,1.5516
610.9779,474,1.529
610.9822,468,1.5097
610.9866,475,1.5323
610.9911,474,1.529
610.9955,476,1.5355
610.9998,476,1.5355
611.0042,475,1.5323
611.0085,478,1.5419
611.0128,477,1.5387
611.0171,476,1.5355
611.0214,478,1.5419
611.0257,482,1.5548
611.03,487,1.571
611.0343,486,1.5677
611.0386,482,1.5548
611.0429,480,1.5484
611.0472,481,1.5516
611.0515,479,1.5452
611.0558,483,1.5581
611.0601,483,1.5581
611.0644,483,1.5581
611.0687,476,1.5355
611.073,474,1.529
611.0773,487,1.571
611.0816,516,1.6645
611.0859,558,1.8
611.0901,614,1.9806
611.0944,666,2.1484
611.0987,656,2.1161
611.103,573,1.8484
611.1073,490,1.5806
611.1116,461,1.4871
611.1159,481,1.5516
611.1202,490,1.5806
611.1245,460,1.4839
611.1288,435,1.4032
611.1331,425,1.371
611.1374,445,1.4355
611.1417,476,1.5355
611.146,501,1.6161
611.1503,514,1.6581
611.1546,518,1.671
611.1589,524,1.6903
611.1632,524,1.6903
611.1675,527,1.7
611.1718,526,1.6968
611.1761,524,1.6903
611.1804,524,1.6903
611.1847,524,1.6903
611.189,526,1.6968
611.1932,526,1.6968
611.1975,524,1.6903
611.2018,527,1.7
611.2061,527,1.7
611.2104,525,1.6935
611.2147,529,1.7065
611.219,529,1.7065
611.2233,537,1.7323
611.2276,544,1.7548
611.2319,552,1.7806
611.2362,559,1.8032
611.2406,559,1.8032
611.2449,557,1.7968
611.2491,561,1.8097
611.2534,564,1.8194
611.2577,557,1.7968
611.2621,554,1.7871
611.2664,554,1.7871
611.2708,553,1.7839
611.2751,550,1.7742
611.2794,549,1.771
611.2838,556,1.7935
611.2881,563,1.8161
611.2924,572,1.8452
611.2967,570,1.8387
611.3011,559,1.8032
611.3054,547,1.7645
611.3098,543,1.7516
611.3141,553,1.7839
611.3184,561,1.8097
611.3228,565,1.8226
611.3272,563,1.8161
611.3315,563,1.8161
611.3358,557,1.7968
611.3401,550,1.7742
611.3445,528,1.7032
611.3488,511,1.6484
611.3531,502,1.6194
611.3575,491,1.5839
611.3618,481,1.5516
611.3661,484,1.5613
611.3704,486,1.5677
611.3747,482,1.5548
611.379,474,1.529
611.3833,466,1.5032
611.3876,466,1.5032
611.3919,463,1.4935
611.3962,459,1.4806
611.4005,450,1.4516
611.4048,442,1.4258
611.4091,443,1.429
611.4134,443,1.429
611.4177,439,1.4161
611.422,438,1.4129
611.4263,435,1.4032
611.4306,434,1.4
611.4349,442,1.4258
611.4391,443,1.429
611.4434,445,1.4355
611.4477,447,1.4419
611.452,454,1.4645
611.4563,455,1.4677
611.4606,450,1.4516
611.4649,456,1.471
611.4692,465,1.5
611.4735,467,1.5065
611.4778,467,1.5065
611.4821,462,1.4903
611.4864,457,1.4742
611.4907,455,1.4677
611.495,460,1.4839
611.4993,472,1.5226
611.5036,479,1.5452
611.5079,479,1.5452
611.5122,481,1.5516
611.5165,480,1.5484
611.5208,476,1.5355
611.525,477,1.5387
611.5294,485,1.5645
611.5336,487,1.571
611.5379,486,1.5677
611.5422,489,1.5774
611.5465,487,1.571
611.5508,485,1.5645
611.5551,479,1.5452
611.5594,472,1.5226
611.5638,459,1.4806
611.5681,461,1.4871
611.5724,475,1.5323
611.5768,481,1.5516
611.5811,478,1.5419
611.5854,479,1.5452
611.5899,481,1.5516
611.5943,476,1.5355
611.5987,470,1.5161
611.6031,472,1.5226
611.6074,475,1.5323
611.6118,477,1.5387
611.6161,485,1.5645
611.6205,487,1.571
611.6248,479,1.5452
611.6292,464,1.4968
611.6335,450,1.4516
611.6378,447,1.4419
611.6422,446,1.4387
611.6465,449,1.4484
611.6508,455,1.4677
611.6552,461,1.4871
611.6595,475,1.5323
611.6638,496,1.6
611.6681,519,1.6742
611.6724,524,1.6903
611.6767,517,1.6677
611.681,517,1.6677
611.6853,512,1.6516
611.6897,500,1.6129
611.694,493,1.5903
611.6983,497,1.6032
611.7025,495,1.5968
611.7068,502,1.6194
611.7111,505,1.629
611.7154,499,1.6097
611.7197,495,1.5968
611.724,492,1.5871
611.7283,486,1.5677
611.7326,477,1.5387
611.737,472,1.5226
611.7413,469,1.5129
611.7455,473,1.5258
611.7498,478,1.5419
611.7541,477,1.5387
611.7584,475,1.5323
611.7627,470,1.5161
611.7671,467,1.5065
611.7714,471,1.5194
611.7757,471,1.5194
611.78,472,1.5226
611.7842,472,1.5226
611.7885,474,1.529
611.7929,485,1.5645
611.7972,499,1.6097
611.8014,520,1.6774
611.8057,570,1.8387
611.81,649,2.0935
611.8143,722,2.329
611.8186,721,2.3258
611.8229,623,2.0097
611.8272,518,1.671
611.8315,469,1.5129
611.8358,464,1.4968
611.8401,449,1.4484
611.8444,421,1.3581
611.8487,412,1.329
611.853,436,1.4065
611.8573,477,1.5387
611.8616,505,1.629
611.866,521,1.6806
611.8703,528,1.7032
611.8747,533,1.7194
611.879,535,1.7258
611.8833,528,1.7032
611.8879,526,1.6968
611.8923,527,1.7
611.8967,526,1.6968
611.9011,521,1.6806
611.9054,518,1.671
611.9097,517,1.6677
611.9141,519,1.6742
611.9184,517,1.6677
611.9228,518,1.671
611.9271,524,1.6903
611.9314,528,1.7032
611.9358,524,1.6903
611.9401,522,1.6839
611.9444,520,1.6774
611.9487,506,1.6323
611.9531,489,1.5774
611.9574,482,1.5548
611.9618,480,1.5484
611.9661,483,1.5581
611.9704,487,1.571
611.9747,493,1.5903
611.979,496,1.6
611.9833,513,1.6548
611.9876,533,1.7194
611.9919,545,1.7581
611.9962,548,1.7677
612.0005,557,1.7968
612.0048,561,1.8097
612.009,562,1.8129
612.0133,571,1.8419
612.0177,573,1.8484
612.022,568,1.8323
612.0263,565,1.8226
612.0306,554,1.7871
612.0349,551,1.7774
612.0392,551,1.7774
612.0435,556,1.7935
612.0478,556,1.7935
612.0521,558,1.8
612.0564,548,1.7677
612.0607,533,1.7194
612.065,521,1.6806
612.0693,512,1.6516
612.0735,499,1.6097
612.0778,490,1.5806
612.0821,488,1.5742
612.0864,485,1.5645
612.0907,474,1.529
612.095,462,1.4903
612.0993,451,1.4548
612.1036,452,1.4581
612.1079,448,1.4452
612.1122,437,1.4097
612.1165,437,1.4097
612.1208,444,1.4323
612.1251,444,1.4323
612.1294,448,1.4452
612.1337,455,1.4677
612.138,450,1.4516
612.1423,441,1.4226
612.1466,430,1.3871
612.1509,432,1.3935
612.1552,444,1.4323
612.1595,461,1.4871
612.1638,461,1.4871
612.1681,444,1.4323
612.1725,436,1.4065
612.1768,441,1.4226
612.1811,447,1.4419
612.1855,453,1.4613
612.1898,462,1.4903
612.1941,462,1.4903
612.1985,460,1.4839
612.2028,459,1.4806
612.2072,462,1.4903
612.2115,466,1.5032
612.2158,468,1.5097
612.2202,467,1.5065
612.2246,451,1.4548
612.2289,436,1.4065
612.2332,432,1.3935
612.2375,447,1.4419
612.2419,456,1.471
612.2463,447,1.4419
612.251,438,1.4129
612.2553,438,1.4129
612.2597,451,1.4548
612.264,465,1.5
612.2684,473,1.5258
612.2727,468,1.5097
612.277,468,1.5097
612.2813,471,1.5194
612.2856,474,1.529
612.2899,476,1.5355
612.2942,481,1.5516
612.2985,482,1.5548
612.3029,482,1.5548
612.3072,482,1.5548
612.3115,476,1.5355
612.3158,470,1.5161
612.3202,465,1.5
612.3246,468,1.5097
612.3289,458,1.4774
612.3332,449,1.4484
612.3374,446,1.4387
612.3417,447,1.4419
612.3461,449,1.4484
612.3504,455,1.4677
612.3547,466,1.5032
612.3589,473,1.5258
612.3633,473,1.5258
612.3676,477,1.5387
612.372,487,1.571
612.3763,492,1.5871
612.3805,491,1.5839
612.3848,490,1.5806
612.3892,487,1.571
612.3935,482,1.5548
612.3978,477,1.5387
612.4022,478,1.5419
612.4066,474,1.529
612.4109,466,1.5032
612.4151,462,1.4903
612.4195,457,1.4742
612.4238,459,1.4806
612.4281,460,1.4839
612.4324,457,1.4742
612.4367,459,1.4806
612.441,460,1.4839
612.4453,460,1.4839
612.4496,470,1.5161
612.4539,483,1.5581
612.4582,489,1.5774
612.4625,488,1.5742
612.4668,487,1.571
612.4711,491,1.5839
612.4754,491,1.5839
612.4797,488,1.5742
612.4847,475,1.5323
612.4892,463,1.4935
612.4935,454,1.4645
612.4979,447,1.4419
612.5022,454,1.4645
612.5065,484,1.5613
612.5109,528,1.7032
612.5157,605,1.9516
612.52,694,2.2387
612.5243,753,2.429
612.5286,685,2.2097
612.5329,563,1.8161
612.5372,482,1.5548
612.5415,467,1.5065
612.5464,459,1.4806
612.5508,436,1.4065
612.5551,427,1.3774
612.5594,457,1.4742
612.5637,507,1.6355
612.568,535,1.7258
612.5723,539,1.7387
612.5766,524,1.6903
612.5809,506,1.6323
612.5852,496,1.6
612.5895,504,1.6258
612.5939,511,1.6484
612.5981,521,1.6806
612.6024,529,1.7065
612.6067,534,1.7226
612.611,536,1.729
612.6154,538,1.7355
612.6197,540,1.7419
612.624,542,1.7484
612.6284,543,1.7516
612.6328,543,1.7516
612.6371,538,1.7355
612.6414,535,1.7258
612.6457,534,1.7226
612.65,536,1.729
612.6543,536,1.729
612.6586,534,1.7226
612.6629,531,1.7129
612.6672,528,1.7032
612.6715,533,1.7194
612.6758,536,1.729
612.6801,538,1.7355
612.6844,540,1.7419
612.6887,543,1.7516
612.693,550,1.7742
612.6973,560,1.8065
612.7016,563,1.8161
612.7059,561,1.8097
612.7102,560,1.8065
612.7145,562,1.8129
612.7188,561,1.8097
612.7232,559,1.8032
612.7275,555,1.7903
612.7318,561,1.8097
612.7361,557,1.7968
612.7404,554,1.7871
612.7447,558,1.8
612.749,566,1.8258
612.7533,560,1.8065
612.7576,550,1.7742
612.7619,540,1.7419
612.7662,532,1.7161
612.7705,521,1.6806
612.7753,498,1.6065
612.7796,469,1.5129
612.784,466,1.5032
612.7884,478,1.5419
612.7928,474,1.529
612.7973,458,1.4774
612.8016,448,1.4452
612.8059,441,1.4226
612.8102,437,1.4097
612.8145,435,1.4032
612.8188,431,1.3903
612.8232,419,1.3516
612.8274,401,1.2935
612.8317,391,1.2613
612.836,384,1.2387
612.8404,384,1.2387
612.8447,388,1.2516
612.8489,397,1.2806
612.8533,403,1.3
612.8577,410,1.3226
612.8619,414,1.3355
612.8662,416,1.3419
612.8705,418,1.3484
612.8749,421,1.3581
612.8792,424,1.3677
612.8835,428,1.3806
612.8878,428,1.3806
612.8921,442,1.4258
612.8964,454,1.4645
612.9007,458,1.4774
612.905,454,1.4645
612.9093,453,1.4613
612.9136,452,1.4581
612.9179,452,1.4581
612.9223,453,1.4613
612.9266,455,1.4677
612.9309,457,1.4742
612.9352,458,1.4774
612.9395,459,1.4806
612.9438,475,1.5323
612.9481,496,1.6
612.9524,500,1.6129
612.9567,494,1.5935
612.961,489,1.5774
612.9653,490,1.5806
612.9696,487,1.571
612.9739,490,1.5806
612.9782,490,1.5806
612.9826,489,1.5774
612.9869,494,1.5935
612.9912,495,1.5968
612.9954,492,1.5871
613.0003,498,1.6065
613.0046,506,1.6323
613.0089,510,1.6452
613.0132,512,1.6516
613.0175,519,1.6742
613.0218,516,1.6645
613.0261,500,1.6129
613.0304,485,1.5645
613.0347,473,1.5258
613.039,472,1.5226
613.0433,479,1.5452
613.0476,477,1.5387
613.0519,488,1.5742
613.0562,498,1.6065
613.0605,506,1.6323
613.0648,519,1.6742
613.0692,525,1.6935
613.0739,527,1.7
613.0782,525,1.6935
613.0825,525,1.6935
613.0868,525,1.6935
613.0911,516,1.6645
613.0954,509,1.6419
613.0997,501,1.6161
613.104,491,1.5839
613.1083,484,1.5613
613.1126,462,1.4903
613.1169,453,1.4613
613.1212,449,1.4484
613.1255,451,1.4548
613.1298,449,1.4484
613.1341,448,1.4452
613.1385,445,1.4355
613.1428,447,1.4419
613.1471,456,1.471
613.1514,468,1.5097
613.1557,474,1.529
613.1599,475,1.5323
613.1642,475,1.5323
613.1685,477,1.5387
613.1727,474,1.529
613.177,472,1.5226
613.1813,472,1.5226
613.1856,470,1.5161
613.1899,470,1.5161
613.1941,477,1.5387
613.1984,500,1.6129
613.2026,535,1.7258
613.2069,589,1.9
613.2112,659,2.1258
613.2158,729,2.3516
613.2201,713,2.3
613.2244,609,1.9645
613.2287,499,1.6097
613.2329,448,1.4452
613.2372,445,1.4355
613.2415,426,1.3742
613.2457,398,1.2839
613.25,391,1.2613
613.2543,417,1.3452
613.2585,454,1.4645
613.2628,487,1.571
613.2671,505,1.629
613.2714,513,1.6548
613.2757,511,1.6484
613.28,500,1.6129
613.2843,499,1.6097
613.2886,502,1.6194
613.2929,506,1.6323
613.2972,508,1.6387
613.3015,509,1.6419
613.3059,511,1.6484
613.3102,510,1.6452
613.3145,511,1.6484
613.3188,507,1.6355
613.3231,498,1.6065
613.3274,507,1.6355
613.3317,520,1.6774
613.336,524,1.6903
613.3403,519,1.6742
613.3446,518,1.671
613.3489,519,1.6742
613.3532,527,1.7
613.3576,542,1.7484
613.3619,549,1.771
613.3661,555,1.7903
613.3704,557,1.7968
613.3747,553,1.7839
613.379,548,1.7677
613.3843,546,1.7613
613.3887,548,1.7677
613.3931,548,1.7677
613.3974,550,1.7742
613.4017,555,1.7903
613.4061,559,1.8032
613.4104,558,1.8
613.4147,558,1.8
613.419,569,1.8355
613.4233,575,1.8548
613.4276,576,1.8581
613.4319,570,1.8387
613.4362,567,1.829
613.4405,561,1.8097
613.4448,562,1.8129
613.4491,559,1.8032
613.4535,555,1.7903
613.4578,548,1.7677
613.4621,539,1.7387
613.4664,532,1.7161
613.4707,529,1.7065
613.475,519,1.6742
613.4793,506,1.6323
613.4836,493,1.5903
613.4879,481,1.5516
613.4923,478,1.5419
613.4966,472,1.5226
613.5008,463,1.4935
613.5051,462,1.4903
613.5094,464,1.4968
613.5138,462,1.4903
613.518,458,1.4774
613.5223,457,1.4742
613.5266,457,1.4742
613.531,456,1.471
613.5353,455,1.4677
613.5396,455,1.4677
613.5439,445,1.4355
613.5483,430,1.3871
613.5526,425,1.371
613.557,424,1.3677
613.5613,443,1.429
613.5656,461,1.4871
613.5699,468,1.5097
613.5742,474,1.529
613.5785,480,1.5484
613.5828,484,1.5613
613.5871,487,1.571
613.5914,487,1.571
613.5958,487,1.571
613.6001,484,1.5613
613.6043,482,1.5548
613.6086,480,1.5484
613.6129,463,1.4935
613.6173,449,1.4484
613.6216,442,1.4258
613.6259,438,1.4129
613.6303,441,1.4226
613.6346,439,1.4161
613.6389,437,1.4097
613.6432,440,1.4194
613.6475,446,1.4387
613.6518,453,1.4613
613.6561,456,1.471
613.6604,458,1.4774
613.6647,455,1.4677
613.669,453,1.4613
613.6733,465,1.5
613.6776,485,1.5645
613.682,498,1.6065
613.6863,492,1.5871
613.6908,484,1.5613
613.6952,487,1.571
613.6996,497,1.6032
613.7039,494,1.5935
613.7082,492,1.5871
613.7125,491,1.5839
613.7168,488,1.5742
613.7211,488,1.5742
613.7254,488,1.5742
613.7298,492,1.5871
613.7341,494,1.5935
613.7384,501,1.6161
613.7427,508,1.6387
613.747,514,1.6581
613.7513,518,1.671
613.7556,521,1.6806
613.7599,533,1.7194
613.7642,541,1.7452
613.7685,543,1.7516
613.7728,542,1.7484
613.7771,538,1.7355
613.7815,537,1.7323
613.7858,533,1.7194
613.7901,525,1.6935
613.7944,520,1.6774
613.7987,516,1.6645
613.803,504,1.6258
613.8073,499,1.6097
613.8116,495,1.5968
613.8159,487,1.571
613.8202,481,1.5516
613.8245,471,1.5194
613.8288,469,1.5129
613.8331,474,1.529
613.8374,474,1.529
613.8417,470,1.5161
613.846,472,1.5226
613.8503,477,1.5387
613.8546,485,1.5645
613.8594,477,1.5387
613.8637,470,1.5161
613.868,468,1.5097
613.8723,461,1.4871
613.8766,457,1.4742
613.8809,453,1.4613
613.8852,453,1.4613
613.8895,454,1.4645
613.8938,468,1.5097
613.8981,500,1.6129
613.9024,548,1.7677
613.9067,617,1.9903
613.911,689,2.2226
613.9153,711,2.2935
613.9196,633,2.0419
613.9239,520,1.6774
613.9282,460,1.4839
613.9326,463,1.4935
613.9369,467,1.5065
613.9416,440,1.4194
613.9459,421,1.3581
613.9502,429,1.3839
613.9545,456,1.471
613.9588,490,1.5806
613.9631,511,1.6484
613.9674,515,1.6613
613.9717,514,1.6581
613.976,515,1.6613
613.9803,514,1.6581
613.9847,515,1.6613
613.989,513,1.6548
613.9933,510,1.6452
613.9975,508,1.6387
614.0023,502,1.6194
614.0066,506,1.6323
614.0109,511,1.6484
614.0152,510,1.6452
614.0195,512,1.6516
614.0239,515,1.6613
614.0282,517,1.6677
614.0325,519,1.6742
614.0368,520,1.6774
614.0411,521,1.6806
614.0454,524,1.6903
614.0497,528,1.7032
614.054,531,1.7129
614.0583,529,1.7065
614.0626,525,1.6935
614.0669,526,1.6968
614.0712,532,1.7161
614.0755,535,1.7258
614.0798,540,1.7419
614.0841,547,1.7645
614.0884,552,1.7806
614.0927,554,1.7871
614.097,553,1.7839
614.1013,554,1.7871
614.1057,564,1.8194
614.11,566,1.8258
614.1142,570,1.8387
614.1185,568,1.8323
614.1229,559,1.8032
614.1272,558,1.8
614.1315,563,1.8161
614.1358,563,1.8161
614.1401,558,1.8
614.1444,555,1.7903
614.1487,553,1.7839
614.153,548,1.7677
614.1573,539,1.7387
614.1616,527,1.7
614.1659,518,1.671
614.1702,509,1.6419
614.1745,495,1.5968
614.1788,482,1.5548
614.1831,477,1.5387
614.1875,472,1.5226
614.1918,469,1.5129
614.196,460,1.4839
614.2003,448,1.4452
614.2046,443,1.429
614.209,443,1.429
614.2132,446,1.4387
614.2175,449,1.4484
614.2218,446,1.4387
614.2261,444,1.4323
614.2305,442,1.4258
614.2348,440,1.4194
614.2391,440,1.4194
614.2434,442,1.4258
614.2477,445,1.4355
614.252,447,1.4419
614.2563,448,1.4452
614.2606,450,1.4516
614.2649,453,1.4613
614.2692,457,1.4742
614.2735,463,1.4935
614.2778,465,1.5
614.2821,465,1.5
614.2864,468,1.5097
614.2909,469,1.5129
614.2953,472,1.5226
614.2997,474,1.529
614.3047,474,1.529
614.3091,475,1.5323
614.3134,475,1.5323
614.3177,475,1.5323
614.322,470,1.5161
614.3263,463,1.4935
614.3306,468,1.5097
614.3349,473,1.5258
614.3392,470,1.5161
614.3435,467,1.5065
614.3478,459,1.4806
614.3521,459,1.4806
614.3564,446,1.4387
614.3607,439,1.4161
614.365,438,1.4129
614.3693,441,1.4226
614.3736,444,1.4323
614.3779,450,1.4516
614.3822,451,1.4548
614.3865,468,1.5097
614.3909,483,1.5581
614.3952,488,1.5742
614.3994,488,1.5742
614.4037,491,1.5839
614.408,490,1.5806
614.4124,495,1.5968
614.4166,504,1.6258
614.4209,499,1.6097
614.4252,492,1.5871
614.4298,493,1.5903
614.4342,485,1.5645
614.4385,482,1.5548
614.4428,491,1.5839
614.4476,506,1.6323
614.4519,518,1.671
614.4562,523,1.6871
614.4605,525,1.6935
614.4648,532,1.7161
614.4691,537,1.7323
614.4734,533,1.7194
614.4777,533,1.7194
614.482,527,1.7
614.4863,516,1.6645
614.4906,505,1.629
614.4949,498,1.6065
614.4992,481,1.5516
614.5035,477,1.5387
614.5078,479,1.5452
614.5121,476,1.5355
614.5164,468,1.5097
614.5207,466,1.5032
614.525,463,1.4935
614.5293,464,1.4968
614.5336,465,1.5
614.5379,465,1.5
614.5422,464,1.4968
614.5465,469,1.5129
614.5508,467,1.5065
614.5552,466,1.5032
614.5595,470,1.5161
614.5637,470,1.5161
614.568,470,1.5161
614.5723,470,1.5161
614.5767,471,1.5194
614.581,469,1.5129
614.5853,465,1.5
614.5898,471,1.5194
614.5948,491,1.5839
614.5991,520,1.6774
614.6034,562,1.8129
614.6077,635,2.0484
614.6119,704,2.271
614.6162,684,2.2065
614.6205,579,1.8677
614.6248,490,1.5806
614.6291,456,1.471
614.6334,451,1.4548
614.6377,431,1.3903
614.642,401,1.2935
614.6463,398,1.2839
614.6506,423,1.3645
614.6549,461,1.4871
614.6592,481,1.5516
614.6635,484,1.5613
614.6678,490,1.5806
614.6722,495,1.5968
614.6765,501,1.6161
614.6808,506,1.6323
614.685,512,1.6516
614.6893,521,1.6806
614.6936,525,1.6935
614.6979,523,1.6871
614.7021,522,1.6839
614.7064,520,1.6774
614.7106,519,1.6742
614.7149,518,1.671
614.7192,513,1.6548
614.7235,500,1.6129
614.7278,498,1.6065
614.732,506,1.6323
614.7363,513,1.6548
614.7405,520,1.6774
614.7448,531,1.7129
614.7491,539,1.7387
614.7533,543,1.7516
614.7576,543,1.7516
614.7619,545,1.7581
614.7661,549,1.771
614.7704,547,1.7645
614.7747,551,1.7774
614.7789,552,1.7806
614.7832,558,1.8
614.7875,563,1.8161
614.7918,566,1.8258
614.7961,565,1.8226
614.8003,566,1.8258
614.8047,569,1.8355
614.8089,571,1.8419
614.8132,583,1.8806
614.8176,595,1.9194
614.8219,601,1.9387
614.8262,605,1.9516
614.8305,601,1.9387
614.8348,572,1.8452
614.8391,550,1.7742
614.8434,548,1.7677
614.8477,547,1.7645
614.852,556,1.7935
614.8563,556,1.7935
614.8606,541,1.7452
614.8649,516,1.6645
614.8692,493,1.5903
614.8735,470,1.5161
614.8778,456,1.471
614.8822,452,1.4581
614.8865,448,1.4452
614.8907,448,1.4452
614.895,452,1.4581
614.8993,457,1.4742
614.9036,460,1.4839
614.9079,456,1.471
614.9121,460,1.4839
614.9164,469,1.5129
614.9207,471,1.5194
614.9249,458,1.4774
614.9292,448,1.4452
614.9335,434,1.4
614.9377,437,1.4097
614.942,444,1.4323
614.9463,453,1.4613
614.9505,454,1.4645
614.9548,443,1.429
614.959,456,1.471
614.9633,490,1.5806
614.9676,503,1.6226
614.9718,476,1.5355
614.9761,437,1.4097
614.9804,415,1.3387
614.9846,422,1.3613
614.9889,444,1.4323
614.9933,464,1.4968
614.9976,469,1.5129
615.0019,473,1.5258
615.0062,466,1.5032
615.0105,453,1.4613
615.0148,454,1.4645
615.0191,460,1.4839
615.0235,467,1.5065
615.0278,475,1.5323
615.0321,480,1.5484
615.0364,486,1.5677
615.0407,486,1.5677
615.045,482,1.5548
615.0493,480,1.5484
615.0536,487,1.571
615.0579,486,1.5677
615.0622,480,1.5484
615.0665,477,1.5387
615.0708,479,1.5452
615.0751,478,1.5419
615.0793,473,1.5258
615.0838,469,1.5129
615.0881,467,1.5065
615.0924,466,1.5032
615.0967,468,1.5097
615.101,468,1.5097
615.1052,471,1.5194
615.1095,473,1.5258
615.1137,475,1.5323
615.118,475,1.5323
615.1223,474,1.529
615.1266,476,1.5355
615.1308,481,1.5516
615.1351,484,1.5613
615.1394,493,1.5903
615.1436,489,1.5774
615.1479,484,1.5613
615.1522,491,1.5839
615.1564,500,1.6129
615.1607,506,1.6323
615.165,515,1.6613
615.1692,521,1.6806
615.1735,524,1.6903
615.1778,509,1.6419
615.182,497,1.6032
615.1863,466,1.5032
615.1907,440,1.4194
615.1951,419,1.3516
615.1994,412,1.329
615.2039,413,1.3323
615.2082,418,1.3484
615.2125,429,1.3839
615.2168,450,1.4516
615.221,463,1.4935
615.2253,472,1.5226
615.2296,483,1.5581
615.2339,486,1.5677
615.2381,483,1.5581
615.2424,479,1.5452
615.2467,483,1.5581
615.2509,488,1.5742
615.2552,491,1.5839
615.2595,493,1.5903
615.2638,489,1.5774
615.2681,492,1.5871
615.2723,487,1.571
615.2766,477,1.5387
615.2809,461,1.4871
615.2851,459,1.4806
615.2894,476,1.5355
615.2937,504,1.6258
615.2979,564,1.8194
615.3022,646,2.0839
615.3065,725,2.3387
615.3107,712,2.2968
615.315,611,1.971
615.3193,499,1.6097
615.3235,450,1.4516
615.3278,452,1.4581
615.3321,438,1.4129
615.3363,416,1.3419
615.3406,417,1.3452
615.3449,435,1.4032
615.3491,473,1.5258
615.3534,501,1.6161
615.3577,513,1.6548
615.3619,519,1.6742
615.3662,518,1.671
615.3704,515,1.6613
615.3747,520,1.6774
615.379,522,1.6839
615.3832,519,1.6742
615.3875,506,1.6323
615.3918,503,1.6226
615.3961,516,1.6645
615.4004,528,1.7032
615.4047,532,1.7161
615.409,523,1.6871
615.4133,510,1.6452
615.4176,516,1.6645
615.4219,519,1.6742
615.4262,525,1.6935
615.4305,527,1.7
615.4348,523,1.6871
615.4391,523,1.6871
615.4434,531,1.7129
615.4477,536,1.729
615.4521,542,1.7484
615.4564,551,1.7774
615.4607,560,1.8065
615.465,561,1.8097
615.4693,552,1.7806
615.4736,543,1.7516
615.4779,546,1.7613
615.4822,552,1.7806
615.4866,559,1.8032
615.4912,561,1.8097
615.4956,562,1.8129
615.4999,558,1.8
615.5042,554,1.7871
615.5084,560,1.8065
615.513,570,1.8387
615.5175,576,1.8581
615.522,576,1.8581
615.5264,575,1.8548
615.5309,572,1.8452
615.5353,564,1.8194
615.5398,558,1.8
615.5441,553,1.7839
615.5484,547,1.7645
615.5526,542,1.7484
615.5569,529,1.7065
615.5611,509,1.6419
615.5654,494,1.5935
615.5698,480,1.5484
615.5741,471,1.5194
615.5785,467,1.5065
615.5829,463,1.4935
615.5873,461,1.4871
615.5916,461,1.4871
615.5959,451,1.4548
615.6001,441,1.4226
615.6044,438,1.4129
615.6086,436,1.4065
615.6128,437,1.4097
615.6171,441,1.4226
615.6213,443,1.429
615.6289,436,1.4065
615.6332,424,1.3677
615.6375,422,1.3613
615.6417,429,1.3839
615.646,438,1.4129
615.6502,444,1.4323
615.6544,446,1.4387
615.6587,442,1.4258
615.6629,442,1.4258
615.6672,450,1.4516
615.6714,457,1.4742
615.6756,464,1.4968
615.6799,468,1.5097
615.6841,473,1.5258
615.6884,479,1.5452
615.6927,477,1.5387
615.6971,479,1.5452
615.7014,480,1.5484
615.7057,483,1.5581
615.7099,488,1.5742
615.7142,487,1.571
615.7186,489,1.5774
615.7229,488,1.5742
615.7272,486,1.5677
615.7314,486,1.5677
615.7357,490,1.5806
615.74,493,1.5903
615.7444,495,1.5968
615.7487,491,1.5839
615.753,487,1.571
615.7573,487,1.571
615.7616,487,1.571
615.7658,482,1.5548
615.7701,485,1.5645
615.7744,483,1.5581
615.7787,481,1.5516
615.783,480,1.5484
615.7873,482,1.5548
615.7916,484,1.5613
615.7959,485,1.5645
615.8002,490,1.5806
615.8045,493,1.5903
615.8087,491,1.5839
615.8133,485,1.5645
615.8176,483,1.5581
615.8219,488,1.5742
615.8262,493,1.5903
615.8305,499,1.6097
615.8347,498,1.6065
615.839,490,1.5806
615.8434,491,1.5839
615.8476,501,1.6161
615.852,512,1.6516
615.8562,519,1.6742
615.8605,514,1.6581
615.8648,514,1.6581
615.8691,521,1.6806
615.8734,521,1.6806
615.8777,512,1.6516
615.882,508,1.6387
615.8863,493,1.5903
615.8906,492,1.5871
615.8949,492,1.5871
615.8992,491,1.5839
615.9035,482,1.5548
615.9078,473,1.5258
615.9121,470,1.5161
615.9164,466,1.5032
615.9208,467,1.5065
615.9251,466,1.5032
615.9294,465,1.5
615.9337,471,1.5194
615.938,472,1.5226
615.9423,468,1.5097
615.9466,472,1.5226
615.951,474,1.529
615.9553,470,1.5161
615.9596,474,1.529
615.964,479,1.5452
615.9683,474,1.529
615.9726,469,1.5129
615.977,471,1.5194
615.9813,480,1.5484
615.9856,507,1.6355
615.99,557,1.7968
615.9943,630,2.0323
615.9986,685,2.2097
616.0029,650,2.0968
616.0072,553,1.7839
616.0115,470,1.5161
616.0158,448,1.4452
616.0201,457,1.4742
616.0244,442,1.4258
616.0287,415,1.3387
616.033,403,1.3
616.0373,417,1.3452
616.0416,449,1.4484
616.0459,485,1.5645
616.0502,503,1.6226
616.0545,508,1.6387
616.0588,501,1.6161
616.063,488,1.5742
616.0673,497,1.6032
616.0716,507,1.6355
616.0759,516,1.6645
616.0802,521,1.6806
616.0845,523,1.6871
616.0889,519,1.6742
616.0933,512,1.6516
616.0978,506,1.6323
616.1021,511,1.6484
616.1065,518,1.671
616.1108,516,1.6645
616.1152,514,1.6581
616.1195,514,1.6581
616.1238,520,1.6774
616.1281,526,1.6968
616.1325,526,1.6968
616.1368,524,1.6903
616.1411,519,1.6742
616.1455,522,1.6839
616.1498,534,1.7226
616.1541,543,1.7516
616.1585,553,1.7839
616.1628,558,1.8
616.1672,569,1.8355
616.1715,570,1.8387
616.1758,552,1.7806
616.1802,538,1.7355
616.1845,540,1.7419
616.1888,556,1.7935
616.1933,567,1.829
616.1976,578,1.8645
616.2019,575,1.8548
616.2062,569,1.8355
616.2105,558,1.8
616.2148,547,1.7645
616.2191,549,1.771
616.2234,557,1.7968
616.2277,558,1.8
616.232,564,1.8194
616.2363,570,1.8387
616.2406,600,1.9355
616.2449,630,2.0323
616.2492,632,2.0387
616.2535,594,1.9161
616.2578,599,1.9323
616.2621,595,1.9194
616.2664,535,1.7258
616.2707,439,1.4161
616.275,373,1.2032
616.2793,353,1.1387
616.2836,376,1.2129
616.2879,406,1.3097
616.2922,416,1.3419
616.2965,418,1.3484
616.3008,419,1.3516
616.3051,418,1.3484
616.3094,412,1.329
616.3137,414,1.3355
616.318,418,1.3484
616.3223,428,1.3806
616.3265,434,1.4
616.3308,440,1.4194
616.3351,444,1.4323
616.3394,452,1.4581
616.3437,460,1.4839
616.348,463,1.4935
616.3523,467,1.5065
616.3566,467,1.5065
616.3609,468,1.5097
616.3652,468,1.5097
616.3695,467,1.5065
616.3738,473,1.5258
616.3781,483,1.5581
616.3824,501,1.6161
616.3867,503,1.6226
616.3912,483,1.5581
616.3956,455,1.4677
616.4001,455,1.4677
616.4044,460,1.4839
616.4087,461,1.4871
616.4129,464,1.4968
616.4172,469,1.5129
616.4215,470,1.5161
616.4257,470,1.5161
616.43,472,1.5226
616.4343,476,1.5355
616.4385,479,1.5452
616.4428,483,1.5581
616.4471,484,1.5613
616.4514,491,1.5839
616.4556,493,1.5903
616.4599,491,1.5839
616.4641,491,1.5839
616.4684,490,1.5806
616.4726,488,1.5742
616.477,487,1.571
616.4812,481,1.5516
616.4855,472,1.5226
616.4897,471,1.5194
616.494,471,1.5194
616.4982,475,1.5323
616.5025,479,1.5452
616.5068,485,1.5645
616.5111,494,1.5935
616.5154,497,1.6032
616.5197,488,1.5742
616.5241,492,1.5871
616.5284,501,1.6161
616.5327,512,1.6516
616.537,513,1.6548
616.5413,512,1.6516
616.5456,510,1.6452
616.5498,514,1.6581
616.5542,509,1.6419
616.5584,496,1.6
616.5627,497,1.6032
616.5671,498,1.6065
616.5714,498,1.6065
616.5757,494,1.5935
616.5799,467,1.5065
616.5842,460,1.4839
616.5885,474,1.529
616.5929,482,1.5548
616.5972,475,1.5323
616.6015,463,1.4935
616.6057,460,1.4839
616.61,462,1.4903
616.6143,475,1.5323
616.6186,479,1.5452
616.6229,480,1.5484
616.6272,484,1.5613
616.6316,484,1.5613
616.6359,488,1.5742
616.6401,490,1.5806
616.6445,498,1.6065
616.6487,502,1.6194
616.653,495,1.5968
616.6573,489,1.5774
616.6616,498,1.6065
616.666,524,1.6903
616.6703,564,1.8194
616.6746,637,2.0548
616.6789,707,2.2806
616.6832,719,2.3194
616.6875,619,1.9968
616.6919,499,1.6097
616.6963,435,1.4032
616.7006,432,1.3935
616.7049,439,1.4161
616.7091,430,1.3871
616.7134,419,1.3516
616.7177,429,1.3839
616.7219,450,1.4516
616.7262,468,1.5097
616.7304,480,1.5484
616.7347,484,1.5613
616.7389,486,1.5677
616.7432,487,1.571
616.7475,489,1.5774
616.7517,489,1.5774
616.756,487,1.571
616.7603,482,1.5548
616.7646,483,1.5581
616.7688,485,1.5645
616.7731,485,1.5645
616.7774,488,1.5742
616.7816,487,1.571
616.7859,493,1.5903
616.7902,503,1.6226
616.7945,523,1.6871
616.7987,527,1.7
616.803,523,1.6871
616.8074,536,1.729
616.8117,550,1.7742
616.816,552,1.7806
616.8203,567,1.829
616.8246,570,1.8387
616.8289,554,1.7871
616.8332,538,1.7355
616.8375,527,1.7
616.8418,526,1.6968
616.8462,536,1.729
616.8504,548,1.7677
616.8548,556,1.7935
616.8591,558,1.8
616.8634,560,1.8065
616.8677,572,1.8452
616.872,578,1.8645
616.8763,579,1.8677
616.8806,576,1.8581
616.8849,572,1.8452
616.8892,578,1.8645
616.8935,587,1.8935
616.8978,590,1.9032
616.9021,581,1.8742
616.9064,579,1.8677
616.9108,582,1.8774
616.915,586,1.8903
616.9193,578,1.8645
616.9237,551,1.7774
616.928,522,1.6839
616.9323,499,1.6097
616.9366,483,1.5581
616.9409,470,1.5161
616.9452,462,1.4903
616.9495,458,1.4774
616.9538,451,1.4548
616.9581,444,1.4323
616.9624,449,1.4484
616.9666,454,1.4645
616.971,453,1.4613
616.9752,449,1.4484
616.9795,452,1.4581
616.9838,453,1.4613
616.9915,433,1.3968
616.996,422,1.3613
617.0004,419,1.3516
617.0047,421,1.3581
617.0091,421,1.3581
617.0134,421,1.3581
617.0177,428,1.3806
617.022,427,1.3774
617.0263,430,1.3871
617.0306,435,1.4032
617.0349,446,1.4387
617.0392,461,1.4871
617.0435,473,1.5258
617.0478,483,1.5581
617.0521,495,1.5968
617.0564,499,1.6097
617.0607,492,1.5871
617.065,488,1.5742
617.0693,491,1.5839
617.0736,524,1.6903
617.0779,515,1.6613
617.0821,495,1.5968
617.0864,491,1.5839
617.0907,476,1.5355
617.095,461,1.4871
617.0993,465,1.5
617.1036,491,1.5839
617.108,503,1.6226
617.1123,502,1.6194
617.1167,491,1.5839
617.121,484,1.5613
617.1253,488,1.5742
617.1297,488,1.5742
617.134,481,1.5516
617.1383,460,1.4839
617.1427,447,1.4419
617.1471,453,1.4613
617.1514,476,1.5355
617.1558,491,1.5839
617.1601,502,1.6194
617.1645,498,1.6065
617.1688,492,1.5871
617.1731,496,1.6
617.1775,497,1.6032
617.1818,488,1.5742
617.1861,482,1.5548
617.1904,473,1.5258
617.1948,470,1.5161
617.1991,466,1.5032
617.2034,477,1.5387
617.2077,489,1.5774
617.212,496,1.6
617.2163,495,1.5968
617.2206,501,1.6161
617.2249,514,1.6581
617.2292,528,1.7032
617.2335,531,1.7129
617.2378,525,1.6935
617.2421,515,1.6613
617.2464,490,1.5806
617.2507,470,1.5161
617.255,467,1.5065
617.2593,468,1.5097
617.2636,461,1.4871
617.2679,458,1.4774
617.2722,450,1.4516
617.2765,440,1.4194
617.2808,435,1.4032
617.2857,435,1.4032
617.2905,439,1.4161
617.2948,437,1.4097
617.2992,444,1.4323
617.3035,444,1.4323
617.3079,447,1.4419
617.3121,448,1.4452
617.3168,443,1.429
617.3211,442,1.4258
617.3254,444,1.4323
617.3296,447,1.4419
617.3339,450,1.4516
617.3382,455,1.4677
617.3425,451,1.4548
617.3467,448,1.4452
617.351,448,1.4452
617.3553,458,1.4774
617.3596,475,1.5323
617.3638,511,1.6484
617.3681,572,1.8452
617.3724,649,2.0935
617.3767,684,2.2065
617.3809,619,1.9968
617.3852,515,1.6613
617.3894,454,1.4645
617.3937,452,1.4581
617.398,457,1.4742
617.4023,429,1.3839
617.407,401,1.2935
617.4113,409,1.3194
617.4155,433,1.3968
617.4198,464,1.4968
617.4241,488,1.5742
617.4284,496,1.6
617.4326,495,1.5968
617.4369,495,1.5968
617.4412,494,1.5935
617.4454,499,1.6097
617.4497,509,1.6419
617.454,529,1.7065
617.4583,538,1.7355
617.4626,545,1.7581
617.4669,546,1.7613
617.4711,547,1.7645
617.4754,549,1.771
617.4796,547,1.7645
617.4839,545,1.7581
617.4882,543,1.7516
617.4925,541,1.7452
617.4967,537,1.7323
617.501,535,1.7258
617.5053,535,1.7258
617.5096,537,1.7323
617.5139,538,1.7355
617.5181,539,1.7387
617.5224,541,1.7452
617.5267,549,1.771
617.531,561,1.8097
617.5353,567,1.829
617.5396,570,1.8387
617.5438,573,1.8484
617.5481,579,1.8677
617.5524,581,1.8742
617.5566,579,1.8677
617.5609,583,1.8806
617.5652,586,1.8903
617.5695,589,1.9
617.5737,590,1.9032
617.578,585,1.8871
617.5823,588,1.8968
617.5866,595,1.9194
617.5908,602,1.9419
617.5951,603,1.9452
617.5994,595,1.9194
617.6037,584,1.8839
617.6083,577,1.8613
617.6126,570,1.8387
617.6169,568,1.8323
617.6212,554,1.7871
617.6255,533,1.7194
617.6297,523,1.6871
617.634,516,1.6645
617.6382,506,1.6323
617.6425,492,1.5871
617.6468,479,1.5452
617.6511,469,1.5129
617.6553,466,1.5032
617.6596,466,1.5032
617.6639,462,1.4903
617.6682,458,1.4774
617.6725,455,1.4677
617.6767,455,1.4677
617.681,456,1.471
617.6853,465,1.5
617.6896,462,1.4903
617.6938,458,1.4774
617.6983,452,1.4581
617.7026,450,1.4516
617.7068,448,1.4452
617.7111,449,1.4484
617.7154,452,1.4581
617.7197,456,1.471
617.724,455,1.4677
617.7282,449,1.4484
617.7325,447,1.4419
617.7368,448,1.4452
617.741,449,1.4484
617.7453,452,1.4581
617.7496,461,1.4871
617.7538,468,1.5097
617.7581,470,1.5161
617.7624,467,1.5065
617.7667,472,1.5226
617.7709,476,1.5355
617.7752,474,1.529
617.7795,466,1.5032
617.7838,459,1.4806
617.7881,462,1.4903
617.7923,469,1.5129
617.7966,471,1.5194
617.8008,468,1.5097
617.8052,460,1.4839
617.8094,454,1.4645
617.8137,455,1.4677
617.818,460,1.4839
617.8222,454,1.4645
617.8265,442,1.4258
617.8308,441,1.4226
617.8351,439,1.4161
617.8393,435,1.4032
617.8436,434,1.4
617.8479,440,1.4194
617.8521,443,1.429
617.8564,446,1.4387
617.8607,448,1.4452
617.8649,448,1.4452
617.8692,446,1.4387
617.8735,447,1.4419
617.8778,449,1.4484
617.882,456,1.471
617.8863,463,1.4935
617.8907,469,1.5129
617.8951,473,1.5258
617.8995,491,1.5839
617.9038,516,1.6645
617.9081,531,1.7129
617.9125,537,1.7323
617.9168,538,1.7355
617.9211,528,1.7032
617.9254,521,1.6806
617.9297,515,1.6613
617.934,512,1.6516
617.9382,504,1.6258
617.9425,486,1.5677
617.9469,467,1.5065
617.9512,460,1.4839
617.9555,461,1.4871
617.9598,469,1.5129
617.9641,469,1.5129
617.9684,467,1.5065
617.9727,466,1.5032
617.977,474,1.529
617.9813,479,1.5452
617.9856,478,1.5419
617.9899,483,1.5581
617.9942,481,1.5516
617.9985,475,1.5323
618.0027,471,1.5194
618.0071,471,1.5194
618.0114,468,1.5097
618.0157,465,1.5
618.02,460,1.4839
618.0243,452,1.4581
618.0286,442,1.4258
618.0329,447,1.4419
618.0372,479,1.5452
618.0415,514,1.6581
618.0458,565,1.8226
618.0501,657,2.1194
618.0544,723,2.3323
618.0587,692,2.2323
618.063,583,1.8806
618.0673,497,1.6032
618.0716,480,1.5484
618.0759,503,1.6226
618.0801,509,1.6419
618.0844,487,1.571
618.0887,456,1.471
618.093,438,1.4129
618.0973,454,1.4645
618.1016,482,1.5548
618.1059,497,1.6032
618.1102,510,1.6452
618.1145,513,1.6548
618.1188,520,1.6774
618.1232,523,1.6871
618.1274,520,1.6774
618.1318,514,1.6581
618.136,503,1.6226
618.1403,493,1.5903
618.1446,493,1.5903
618.1489,493,1.5903
618.1532,493,1.5903
618.1575,495,1.5968
618.1619,512,1.6516
618.1662,518,1.671
618.1705,510,1.6452
618.1748,501,1.6161
618.1791,499,1.6097
618.1833,500,1.6129
618.1877,500,1.6129
618.1921,507,1.6355
618.1965,519,1.6742
618.2009,541,1.7452
618.2052,551,1.7774
618.2095,561,1.8097
618.2139,568,1.8323
618.2182,572,1.8452
618.2225,572,1.8452
618.2268,580,1.871
618.231,585,1.8871
618.2354,587,1.8935
618.2396,586,1.8903
618.2439,581,1.8742
618.2482,584,1.8839
618.2525,595,1.9194
618.2568,595,1.9194
618.2611,589,1.9
618.2654,589,1.9
618.2697,585,1.8871
618.274,579,1.8677
618.2783,573,1.8484
618.2826,575,1.8548
618.2869,573,1.8484
618.2912,564,1.8194
618.2955,558,1.8
618.2998,549,1.771
618.304,540,1.7419
618.3084,523,1.6871
618.3127,506,1.6323
618.3172,490,1.5806
618.3215,478,1.5419
618.3258,469,1.5129
618.3302,463,1.4935
618.3345,458,1.4774
618.3388,447,1.4419
618.3432,439,1.4161
618.3475,434,1.4
618.3518,432,1.3935
618.3562,431,1.3903
618.3605,415,1.3387
618.3648,405,1.3065
618.3692,400,1.2903
618.3735,398,1.2839
618.3778,405,1.3065
618.3821,414,1.3355
618.3865,420,1.3548
618.3908,424,1.3677
618.3951,426,1.3742
618.3995,425,1.371
618.4038,429,1.3839
618.4081,434,1.4
618.4124,433,1.3968
618.4168,434,1.4
618.4211,437,1.4097
618.4254,441,1.4226
618.4297,441,1.4226
618.434,448,1.4452
618.4383,447,1.4419
618.4426,446,1.4387
618.4468,452,1.4581
618.4511,454,1.4645
618.4554,463,1.4935
618.4597,468,1.5097
618.464,467,1.5065
618.4683,465,1.5
618.4726,460,1.4839
618.477,458,1.4774
618.4813,460,1.4839
618.4856,472,1.5226
618.4898,498,1.6065
618.4941,507,1.6355
618.4984,517,1.6677
618.5027,522,1.6839
618.507,510,1.6452
618.5113,502,1.6194
618.5157,513,1.6548
618.5202,514,1.6581
618.5246,520,1.6774
618.5289,519,1.6742
618.5332,517,1.6677
618.5375,512,1.6516
618.5419,508,1.6387
618.5462,521,1.6806
618.5505,533,1.7194
618.5549,543,1.7516
618.5592,540,1.7419
618.5635,538,1.7355
618.5679,540,1.7419
618.5722,538,1.7355
618.5765,528,1.7032
618.5809,508,1.6387
618.5852,486,1.5677
618.5895,479,1.5452
618.5938,476,1.5355
618.5982,471,1.5194
618.6025,468,1.5097
618.6068,465,1.5
618.6113,464,1.4968
618.6156,461,1.4871
618.6199,457,1.4742
618.6243,458,1.4774
618.6286,461,1.4871
618.6329,456,1.471
618.6371,455,1.4677
618.6414,455,1.4677
618.6457,464,1.4968
618.65,460,1.4839
618.6543,458,1.4774
618.6586,459,1.4806
618.6629,461,1.4871
618.6672,462,1.4903
618.6715,462,1.4903
618.6758,470,1.5161
618.6801,470,1.5161
618.6844,465,1.5
618.6887,469,1.5129
618.693,473,1.5258
618.6972,500,1.6129
618.7015,543,1.7516
618.7058,606,1.9548
618.7101,676,2.1806
618.7144,716,2.3097
618.7188,650,2.0968
618.7231,541,1.7452
618.7275,468,1.5097
618.7318,456,1.471
618.7361,467,1.5065
618.7405,452,1.4581
618.7448,428,1.3806
618.7491,419,1.3516
618.7535,431,1.3903
618.7578,458,1.4774
618.7621,479,1.5452
618.7664,500,1.6129
618.7708,510,1.6452
618.7751,514,1.6581
618.7794,511,1.6484
618.7838,514,1.6581
618.7881,517,1.6677
618.7927,517,1.6677
618.7973,513,1.6548
618.8018,515,1.6613
618.8062,516,1.6645
618.8105,505,1.629
618.8148,493,1.5903
618.8191,489,1.5774
618.8234,489,1.5774
618.8276,491,1.5839
618.8319,497,1.6032
618.8361,502,1.6194
618.8404,506,1.6323
618.8446,511,1.6484
618.8488,515,1.6613
618.8531,518,1.671
618.8573,521,1.6806
618.8616,531,1.7129
618.8658,558,1.8
618.8702,578,1.8645
618.8745,568,1.8323
618.8787,565,1.8226
618.883,588,1.8968
618.8873,594,1.9161
618.8916,586,1.8903
618.8959,562,1.8129
618.9002,547,1.7645
618.9045,548,1.7677
618.9088,553,1.7839
618.9132,564,1.8194
618.9175,568,1.8323
618.9219,568,1.8323
618.9262,577,1.8613
618.9305,595,1.9194
618.9349,596,1.9226
618.9392,594,1.9161
618.9435,590,1.9032
618.9478,584,1.8839
618.9522,576,1.8581
618.9565,560,1.8065
618.9608,546,1.7613
618.9652,527,1.7
618.9695,494,1.5935
618.9738,478,1.5419
618.9782,474,1.529
618.9825,469,1.5129
618.9868,453,1.4613
618.9911,435,1.4032
618.9955,441,1.4226
619.0002,446,1.4387
619.0046,451,1.4548
619.0089,447,1.4419
619.0132,442,1.4258
619.0176,424,1.3677
619.0219,412,1.329
619.0262,414,1.3355
619.0305,437,1.4097
619.0348,440,1.4194
619.0391,442,1.4258
619.0434,437,1.4097
619.0477,432,1.3935
619.0519,433,1.3968
619.0562,449,1.4484
619.0605,463,1.4935
619.0648,473,1.5258
619.0691,481,1.5516
619.0734,480,1.5484
619.0777,483,1.5581
619.082,478,1.5419
619.0864,456,1.471
619.0908,438,1.4129
619.0952,432,1.3935
619.0996,432,1.3935
619.1039,441,1.4226
619.1083,453,1.4613
619.1126,460,1.4839
619.1169,462,1.4903
619.1212,459,1.4806
619.1255,456,1.471
619.1298,447,1.4419
619.1341,447,1.4419
619.1384,451,1.4548
619.1427,454,1.4645
619.147,456,1.471
619.1513,459,1.4806
619.1556,463,1.4935
619.1603,460,1.4839
619.1646,460,1.4839
619.1689,470,1.5161
619.1732,476,1.5355
619.1775,482,1.5548
619.1818,476,1.5355
619.1861,477,1.5387
619.1904,478,1.5419
619.1947,490,1.5806
619.199,494,1.5935
619.2033,495,1.5968
619.2075,496,1.6
619.2118,495,1.5968
619.2161,500,1.6129
619.2205,506,1.6323
619.2248,517,1.6677
619.2291,522,1.6839
619.2335,523,1.6871
619.2378,520,1.6774
619.2421,527,1.7
619.2465,537,1.7323
619.2508,546,1.7613
619.2551,543,1.7516
619.2594,542,1.7484
619.2638,533,1.7194
619.2681,519,1.6742
619.2725,519,1.6742
619.2768,508,1.6387
619.2811,490,1.5806
619.2855,474,1.529
619.2898,447,1.4419
619.2941,434,1.4
619.2984,429,1.3839
619.3028,426,1.3742
619.3071,427,1.3774
619.3115,427,1.3774
619.3158,430,1.3871
619.3201,432,1.3935
619.3245,442,1.4258
619.3287,442,1.4258
619.333,444,1.4323
619.3373,446,1.4387
619.3416,463,1.4935
619.3459,479,1.5452
619.3502,483,1.5581
619.3545,489,1.5774
619.3588,493,1.5903
619.3631,482,1.5548
619.3674,472,1.5226
619.3717,461,1.4871
619.376,468,1.5097
619.3803,488,1.5742
619.3846,530,1.7097
619.3889,595,1.9194
619.3932,667,2.1516
619.3975,686,2.2129
619.4018,589,1.9
619.4061,477,1.5387
619.4103,419,1.3516
619.4146,421,1.3581
619.4189,421,1.3581
619.4233,396,1.2774
619.4276,377,1.2161
619.4319,384,1.2387
619.4363,414,1.3355
619.4406,447,1.4419
619.4449,468,1.5097
619.4493,481,1.5516
619.4536,488,1.5742
619.4579,492,1.5871
619.4622,494,1.5935
619.4666,495,1.5968
619.4709,502,1.6194
619.4753,508,1.6387
619.4796,504,1.6258
619.4839,499,1.6097
619.4883,503,1.6226
619.4926,521,1.6806
619.4969,526,1.6968
619.5012,526,1.6968
619.5056,526,1.6968
619.5099,529,1.7065
619.5142,534,1.7226
619.5187,526,1.6968
619.523,513,1.6548
619.5273,513,1.6548
619.5316,516,1.6645
619.5359,540,1.7419
619.5402,553,1.7839
619.5445,560,1.8065
619.5488,572,1.8452
619.5531,577,1.8613
619.5574,583,1.8806
619.5617,587,1.8935
619.5659,587,1.8935
619.5703,566,1.8258
619.5746,553,1.7839
619.5788,551,1.7774
619.5831,551,1.7774
619.5874,548,1.7677
619.5917,565,1.8226
619.596,580,1.871
619.6003,587,1.8935
619.6046,575,1.8548
619.6089,579,1.8677
619.6132,581,1.8742
619.6175,570,1.8387
619.6218,560,1.8065
619.6261,552,1.7806
619.6305,544,1.7548
619.6348,535,1.7258
619.6391,524,1.6903
619.6435,509,1.6419
619.6478,493,1.5903
619.6521,479,1.5452
619.6564,484,1.5613
619.6608,482,1.5548
619.6651,480,1.5484
619.6694,475,1.5323
619.6738,472,1.5226
619.6781,459,1.4806
619.6824,452,1.4581
619.6868,451,1.4548
619.6912,454,1.4645
619.6957,453,1.4613
619.7001,454,1.4645
619.7045,452,1.4581
619.7088,451,1.4548
619.7131,453,1.4613
619.7175,455,1.4677
619.7218,457,1.4742
619.7261,458,1.4774
619.7304,458,1.4774
619.7347,457,1.4742
619.739,459,1.4806
619.7433,461,1.4871
619.7476,464,1.4968
619.7519,467,1.5065
619.7562,468,1.5097
619.7605,470,1.5161
619.7648,469,1.5129
619.7691,468,1.5097
619.7734,472,1.5226
619.7777,472,1.5226
619.782,473,1.5258
619.7863,477,1.5387
619.7906,479,1.5452
619.7949,476,1.5355
619.7992,475,1.5323
619.8035,483,1.5581
619.8078,489,1.5774
619.8121,493,1.5903
619.8164,490,1.5806
619.8206,486,1.5677
619.8249,489,1.5774
619.8293,489,1.5774
619.8336,487,1.571
619.838,492,1.5871
619.8423,494,1.5935
619.8466,494,1.5935
619.851,495,1.5968
619.8553,497,1.6032
619.8596,495,1.5968
619.8639,488,1.5742
619.8683,484,1.5613
619.8726,477,1.5387
619.877,483,1.5581
619.8813,507,1.6355
619.8857,515,1.6613
619.89,499,1.6097
619.8943,483,1.5581
619.8986,478,1.5419
619.903,478,1.5419
619.9073,481,1.5516
619.9116,485,1.5645
619.9159,489,1.5774
619.9203,487,1.571
619.9246,487,1.571
619.929,487,1.571
619.9332,486,1.5677
619.9376,483,1.5581
619.9418,481,1.5516
619.9461,481,1.5516
619.9504,481,1.5516
619.9547,482,1.5548
619.959,486,1.5677
619.9633,492,1.5871
619.9676,494,1.5935
619.9719,497,1.6032
619.9762,505,1.629
619.9805,515,1.6613
619.9848,520,1.6774
619.9891,521,1.6806
619.9946,518,1.671
619.9991,518,1.671
620.0036,514,1.6581
620.0079,507,1.6355
620.0121,504,1.6258
620.0164,495,1.5968
620.0207,485,1.5645
620.025,482,1.5548
620.0292,483,1.5581
620.0335,482,1.5548
620.0377,478,1.5419
620.042,472,1.5226
620.0462,473,1.5258
620.0505,483,1.5581
620.0548,494,1.5935
620.059,498,1.6065
620.0633,499,1.6097
620.0675,496,1.6
620.0718,502,1.6194
620.076,518,1.671
620.0803,516,1.6645
620.0845,516,1.6645
620.0888,519,1.6742
620.0931,527,1.7
620.0973,531,1.7129
620.1016,525,1.6935
620.1058,520,1.6774
620.1101,525,1.6935
620.1143,541,1.7452
620.1186,560,1.8065
620.1229,605,1.9516
620.1271,675,2.1774
620.1315,739,2.3839
620.1357,730,2.3548
620.14,615,1.9839
620.1443,497,1.6032
620.1486,442,1.4258
620.1529,443,1.429
620.1572,435,1.4032
620.1615,409,1.3194
620.1658,393,1.2677
620.1701,412,1.329
620.1744,457,1.4742
620.1786,494,1.5935
620.183,523,1.6871
620.1873,529,1.7065
620.1915,527,1.7
620.1958,515,1.6613
620.2001,514,1.6581
620.2043,508,1.6387
620.2086,511,1.6484
620.2129,515,1.6613
620.2172,517,1.6677
620.2215,513,1.6548
620.2258,511,1.6484
620.2301,508,1.6387
620.2344,509,1.6419
620.2387,512,1.6516
620.243,515,1.6613
620.2472,515,1.6613
620.2515,517,1.6677
620.2558,529,1.7065
620.2601,536,1.729
620.2644,540,1.7419
620.2687,535,1.7258
620.273,530,1.7097
620.2773,532,1.7161
620.2816,538,1.7355
620.2859,542,1.7484
620.2901,547,1.7645
620.2944,557,1.7968
620.2987,566,1.8258
620.303,568,1.8323
620.3073,569,1.8355
620.3116,572,1.8452
620.3159,575,1.8548
620.3203,575,1.8548
620.3246,579,1.8677
620.329,581,1.8742
620.3333,583,1.8806
620.3376,585,1.8871
620.3419,581,1.8742
620.3462,579,1.8677
620.3506,580,1.871
620.3548,576,1.8581
620.3591,572,1.8452
620.3634,566,1.8258
620.3677,558,1.8
620.372,550,1.7742
620.3763,542,1.7484
620.3807,534,1.7226
620.385,517,1.6677
620.3893,504,1.6258
620.3936,491,1.5839
620.3979,475,1.5323
620.4022,459,1.4806
620.4065,441,1.4226
620.4108,435,1.4032
620.4151,434,1.4
620.4194,433,1.3968
620.4237,431,1.3903
620.4281,429,1.3839
620.4324,425,1.371
620.4367,426,1.3742
620.441,429,1.3839
620.4453,431,1.3903
620.4496,433,1.3968
620.4539,436,1.4065
620.4582,438,1.4129
620.4625,435,1.4032
620.4668,436,1.4065
620.4711,443,1.429
620.4754,445,1.4355
620.4797,445,1.4355
620.484,446,1.4387
620.4883,450,1.4516
620.4926,457,1.4742
620.4969,464,1.4968
620.5012,470,1.5161
620.5055,478,1.5419
620.5098,477,1.5387
620.5142,475,1.5323
620.5195,472,1.5226
620.5247,479,1.5452
620.5293,485,1.5645
620.5337,486,1.5677
620.5382,483,1.5581
620.5427,484,1.5613
620.5472,496,1.6
620.5515,515,1.6613
620.5558,504,1.6258
620.56,491,1.5839
620.5643,484,1.5613
620.5685,481,1.5516
620.5728,481,1.5516
620.5772,483,1.5581
620.5814,478,1.5419
620.5857,477,1.5387
620.59,478,1.5419
620.5945,479,1.5452
620.5989,481,1.5516
620.6032,481,1.5516
620.6075,478,1.5419
620.6118,479,1.5452
620.6161,480,1.5484
620.6204,478,1.5419
620.6247,478,1.5419
620.629,476,1.5355
620.6333,476,1.5355
620.6377,478,1.5419
620.642,476,1.5355
620.6463,476,1.5355
620.6505,478,1.5419
620.6548,481,1.5516
620.6591,483,1.5581
620.6634,485,1.5645
620.6677,486,1.5677
620.672,486,1.5677
620.6763,484,1.5613
620.6806,480,1.5484
620.6849,483,1.5581
620.693,485,1.5645
620.6974,483,1.5581
620.7017,484,1.5613
620.706,484,1.5613
620.7103,482,1.5548
620.7146,480,1.5484
620.7189,481,1.5516
620.7233,482,1.5548
620.7275,483,1.5581
620.7319,484,1.5613
620.7363,484,1.5613
620.7406,487,1.571
620.745,495,1.5968
620.7493,494,1.5935
620.7536,493,1.5903
620.7579,503,1.6226
620.7623,497,1.6032
620.7666,491,1.5839
620.771,490,1.5806
620.7753,491,1.5839
620.7796,491,1.5839
620.784,493,1.5903
620.7883,492,1.5871
620.7926,492,1.5871
620.797,491,1.5839
620.8014,491,1.5839
620.8057,484,1.5613
620.81,486,1.5677
620.8144,492,1.5871
620.8187,495,1.5968
620.8231,499,1.6097
620.8274,509,1.6419
620.8317,516,1.6645
620.836,524,1.6903
620.8404,519,1.6742
620.8447,524,1.6903
620.849,534,1.7226
620.8533,543,1.7516
620.8576,547,1.7645
620.8618,546,1.7613
620.8662,544,1.7548
620.8705,536,1.729
620.8747,532,1.7161
620.879,524,1.6903
620.8833,511,1.6484
620.8877,502,1.6194
620.8921,498,1.6065
620.8964,496,1.6
620.9008,490,1.5806
620.9052,491,1.5839
620.9095,488,1.5742
620.9138,486,1.5677
620.9181,484,1.5613
620.9224,485,1.5645
620.9267,484,1.5613
620.931,487,1.571
620.9353,497,1.6032
620.9396,500,1.6129
620.9439,502,1.6194
620.9482,504,1.6258
620.9525,504,1.6258
620.9568,502,1.6194
620.9611,504,1.6258
620.9654,503,1.6226
620.9697,500,1.6129
620.9739,497,1.6032
620.9782,503,1.6226
620.9825,514,1.6581
620.9868,539,1.7387
620.9911,591,1.9065
620.9954,675,2.1774
620.9997,746,2.4065
621.004,746,2.4065
621.0083,644,2.0774
621.0126,529,1.7065
621.017,472,1.5226
621.0213,472,1.5226
621.0256,453,1.4613
621.0299,419,1.3516
621.0343,405,1.3065
621.0386,423,1.3645
621.0429,459,1.4806
621.0473,481,1.5516
621.0516,480,1.5484
621.0559,474,1.529
621.0603,477,1.5387
621.0646,483,1.5581
621.0689,485,1.5645
621.0733,487,1.571
621.0776,487,1.571
621.0819,489,1.5774
621.0863,479,1.5452
621.0906,479,1.5452
621.095,478,1.5419
621.0993,485,1.5645
621.1036,491,1.5839
621.108,493,1.5903
621.1123,491,1.5839
621.1166,500,1.6129
621.121,518,1.671
621.1253,528,1.7032
621.1296,525,1.6935
621.134,525,1.6935
621.1383,525,1.6935
621.1426,523,1.6871
621.1469,521,1.6806
621.1512,524,1.6903
621.1555,528,1.7032
621.1598,525,1.6935
621.1641,521,1.6806
621.1684,525,1.6935
621.1727,528,1.7032
621.177,533,1.7194
621.1813,539,1.7387
621.1856,545,1.7581
621.1899,549,1.771
621.1942,554,1.7871
621.1985,561,1.8097
621.2028,585,1.8871
621.2071,611,1.971
621.2114,624,2.0129
621.2157,621,2.0032
621.22,611,1.971
621.2243,608,1.9613
621.2286,615,1.9839
621.2329,619,1.9968
621.2372,616,1.9871
621.2415,608,1.9613
621.2458,599,1.9323
621.2502,586,1.8903
621.2545,568,1.8323
621.2589,551,1.7774
621.2632,523,1.6871
621.2675,494,1.5935
621.2719,479,1.5452
621.2762,467,1.5065
621.2805,454,1.4645
621.2849,446,1.4387
621.2892,443,1.429
621.2935,444,1.4323
621.2979,466,1.5032
621.3022,471,1.5194
621.3065,473,1.5258
621.3109,473,1.5258
621.3152,475,1.5323
621.3195,474,1.529
621.3239,471,1.5194
621.3282,469,1.5129
621.3325,469,1.5129
621.337,473,1.5258
621.3413,472,1.5226
621.3456,480,1.5484
621.3499,487,1.571
621.3542,484,1.5613
621.3585,479,1.5452
621.3629,478,1.5419
621.3672,479,1.5452
621.3715,481,1.5516
621.3758,482,1.5548
621.3801,484,1.5613
621.3843,483,1.5581
621.3886,488,1.5742
621.393,493,1.5903
621.3975,494,1.5935
621.4018,491,1.5839
621.4061,489,1.5774
621.4103,486,1.5677
621.4146,482,1.5548
621.4189,490,1.5806
621.4232,497,1.6032
621.4275,505,1.629
621.4318,502,1.6194
621.4361,504,1.6258
621.4404,494,1.5935
621.4448,493,1.5903
621.4491,495,1.5968
621.4535,500,1.6129
621.4578,495,1.5968
621.4621,481,1.5516
621.4665,473,1.5258
621.4708,474,1.529
621.4751,476,1.5355
621.4795,482,1.5548
621.4838,499,1.6097
621.4881,509,1.6419
621.4926,511,1.6484
621.4972,508,1.6387
621.5016,501,1.6161
621.5059,486,1.5677
621.5103,482,1.5548
621.5146,483,1.5581
621.5189,485,1.5645
621.5233,485,1.5645
621.5276,479,1.5452
621.532,478,1.5419
621.5363,480,1.5484
621.5406,479,1.5452
621.545,483,1.5581
621.5493,475,1.5323
621.5536,454,1.4645
621.5579,434,1.4
621.5622,422,1.3613
621.5665,430,1.3871
621.5708,442,1.4258
621.5751,441,1.4226
621.5794,438,1.4129
621.5837,445,1.4355
621.588,461,1.4871
621.5923,476,1.5355
621.5966,485,1.5645
621.6009,477,1.5387
621.6052,473,1.5258
621.6095,474,1.529
621.6137,474,1.529
621.618,473,1.5258
621.6223,474,1.529
621.6266,465,1.5
621.6309,449,1.4484
621.6352,446,1.4387
621.6395,463,1.4935
621.6438,469,1.5129
621.6482,458,1.4774
621.6525,444,1.4323
621.6568,441,1.4226
621.6612,441,1.4226
621.6655,442,1.4258
621.6698,444,1.4323
621.6742,444,1.4323
621.6785,449,1.4484
621.6829,472,1.5226
621.6872,478,1.5419
621.6917,477,1.5387
621.6961,463,1.4935
621.7004,457,1.4742
621.7047,456,1.471
621.7091,460,1.4839
621.7134,463,1.4935
621.7177,462,1.4903
621.722,458,1.4774
621.7264,459,1.4806
621.7307,466,1.5032
621.7351,470,1.5161
621.7394,471,1.5194
621.7437,477,1.5387
621.7481,489,1.5774
621.7523,501,1.6161
621.7566,506,1.6323
621.7609,516,1.6645
621.7652,527,1.7
621.7695,536,1.729
621.7738,536,1.729
621.7781,537,1.7323
621.7824,535,1.7258
621.7867,514,1.6581
621.7911,507,1.6355
621.7955,509,1.6419
621.7999,505,1.629
621.8042,500,1.6129
621.8086,509,1.6419
621.8129,517,1.6677
621.8172,523,1.6871
621.8215,523,1.6871
621.8258,520,1.6774
621.8301,512,1.6516
621.8344,510,1.6452
621.8386,498,1.6065
621.843,499,1.6097
621.8473,512,1.6516
621.8516,527,1.7
621.8559,530,1.7097
621.8602,529,1.7065
621.8645,528,1.7032
621.8688,528,1.7032
621.8731,532,1.7161
621.8774,531,1.7129
621.8817,522,1.6839
621.886,535,1.7258
621.8903,563,1.8161
621.8946,624,2.0129
621.8989,691,2.229
621.9032,746,2.4065
621.9075,701,2.2613
621.9118,586,1.8903
621.9161,489,1.5774
621.9204,455,1.4677
621.9247,470,1.5161
621.929,466,1.5032
621.9333,443,1.429
621.9376,426,1.3742
621.9419,440,1.4194
621.9462,475,1.5323
621.9505,510,1.6452
621.9549,531,1.7129
621.9592,539,1.7387
621.9635,545,1.7581
621.9678,542,1.7484
621.9722,548,1.7677
621.9765,552,1.7806
621.9808,555,1.7903
621.9852,551,1.7774
621.9895,551,1.7774
621.9938,554,1.7871
621.9982,550,1.7742
622.0025,547,1.7645
622.0069,548,1.7677
622.0112,554,1.7871
622.0155,560,1.8065
622.0199,560,1.8065
622.0242,558,1.8
622.0285,558,1.8
622.0329,559,1.8032
622.0372,563,1.8161
622.0416,568,1.8323
622.0459,572,1.8452
622.0502,576,1.8581
622.0545,569,1.8355
622.0588,567,1.829
622.0631,572,1.8452
622.0674,574,1.8516
622.0717,575,1.8548
622.076,579,1.8677
622.0803,578,1.8645
622.0846,573,1.8484
622.0889,577,1.8613
622.0932,584,1.8839
622.0975,587,1.8935
622.1018,588,1.8968
622.1061,592,1.9097
622.1103,590,1.9032
622.1146,595,1.9194
622.1189,594,1.9161
622.1233,593,1.9129
622.1275,593,1.9129
622.1318,581,1.8742
622.1361,580,1.871
622.1404,572,1.8452
622.1447,556,1.7935
622.149,541,1.7452
622.1534,527,1.7
622.1577,510,1.6452
622.162,495,1.5968
622.1664,482,1.5548
622.1707,470,1.5161
622.175,463,1.4935
622.1794,455,1.4677
622.1837,445,1.4355
622.188,436,1.4065
622.1924,431,1.3903
622.1967,444,1.4323
622.2011,460,1.4839
622.2054,472,1.5226
622.2097,481,1.5516
622.214,478,1.5419
622.2184,475,1.5323
622.2227,479,1.5452
622.2271,478,1.5419
622.2315,477,1.5387
622.2358,474,1.529
622.2401,481,1.5516
622.2445,472,1.5226
622.2488,444,1.4323
622.2531,435,1.4032
622.2574,433,1.3968
622.2617,432,1.3935
622.266,440,1.4194
622.2703,447,1.4419
622.2746,456,1.471
622.2789,463,1.4935
622.2832,464,1.4968
622.2875,468,1.5097
622.2918,467,1.5065
622.2961,467,1.5065
622.3003,453,1.4613
622.3047,463,1.4935
622.309,483,1.5581
622.3133,475,1.5323
622.3175,468,1.5097
622.3218,462,1.4903
622.3262,463,1.4935
622.3304,472,1.5226
622.3347,484,1.5613
622.339,488,1.5742
622.3433,476,1.5355
622.3477,467,1.5065
622.352,464,1.4968
622.3564,464,1.4968
622.3607,464,1.4968
622.3651,464,1.4968
622.3694,466,1.5032
622.3737,470,1.5161
622.378,474,1.529
622.383,471,1.5194
622.3874,460,1.4839
622.3918,450,1.4516
622.3963,445,1.4355
622.4008,446,1.4387
622.4052,449,1.4484
622.4095,456,1.471
622.4139,472,1.5226
622.4182,488,1.5742
622.4225,484,1.5613
622.4269,482,1.5548
622.4312,478,1.5419
622.4356,482,1.5548
622.4399,485,1.5645
622.4442,484,1.5613
622.4487,487,1.571
622.453,490,1.5806
622.4573,482,1.5548
622.4616,473,1.5258
622.4659,467,1.5065
622.4702,466,1.5032
622.4745,469,1.5129
622.4788,471,1.5194
622.4833,471,1.5194
622.4876,472,1.5226
622.4919,473,1.5258
622.4962,476,1.5355
622.5004,476,1.5355
622.5048,476,1.5355
622.5091,476,1.5355
622.5134,479,1.5452
622.5176,488,1.5742
622.5219,492,1.5871
622.5262,491,1.5839
622.5305,496,1.6
622.5348,515,1.6613
622.5391,538,1.7355
622.5434,549,1.771
622.5477,552,1.7806
622.552,548,1.7677
622.5564,527,1.7
622.5607,514,1.6581
622.565,504,1.6258
622.5694,507,1.6355
622.5737,504,1.6258
622.578,506,1.6323
622.5824,498,1.6065
622.5867,495,1.5968
622.591,494,1.5935
622.5954,491,1.5839
622.5997,475,1.5323
622.604,457,1.4742
622.6084,454,1.4645
622.6127,470,1.5161
622.6171,486,1.5677
622.6215,484,1.5613
622.6258,480,1.5484
622.6301,487,1.571
622.6345,476,1.5355
622.6388,466,1.5032
622.6431,460,1.4839
622.6475,459,1.4806
622.6518,460,1.4839
622.6561,465,1.5
622.6604,480,1.5484
622.6647,484,1.5613
622.669,517,1.6677
622.6733,558,1.8
622.6776,609,1.9645
622.6819,670,2.1613
622.6862,734,2.3677
622.6905,777,2.5065
622.6949,703,2.2677
622.6993,594,1.9161
622.7037,529,1.7065
622.708,519,1.6742
622.7124,513,1.6548
622.7167,469,1.5129
622.721,436,1.4065
622.7253,441,1.4226
622.7296,467,1.5065
622.7339,489,1.5774
622.7382,503,1.6226
622.7424,513,1.6548
622.7467,515,1.6613
622.751,514,1.6581
622.7553,519,1.6742
622.7596,523,1.6871
622.7639,516,1.6645
622.7682,515,1.6613
622.7725,515,1.6613
622.7768,511,1.6484
622.7811,511,1.6484
622.7854,497,1.6032
622.7897,503,1.6226
622.794,495,1.5968
622.7983,492,1.5871
622.8026,496,1.6
622.8069,510,1.6452
622.8112,517,1.6677
622.8155,519,1.6742
622.8198,522,1.6839
622.8241,523,1.6871
622.8284,526,1.6968
622.8327,525,1.6935
622.837,513,1.6548
622.8413,513,1.6548
622.8456,516,1.6645
622.8499,519,1.6742
622.8542,519,1.6742
622.8586,526,1.6968
622.8629,533,1.7194
622.8672,536,1.729
622.8715,538,1.7355
622.8759,543,1.7516
622.8802,549,1.771
622.8846,546,1.7613
622.8889,566,1.8258
622.8932,574,1.8516
622.8975,580,1.871
622.9019,585,1.8871
622.9062,587,1.8935
622.9105,592,1.9097
622.9149,576,1.8581
622.9192,570,1.8387
622.9235,555,1.7903
622.9279,543,1.7516
622.9322,529,1.7065
622.9365,514,1.6581
622.9409,500,1.6129
622.9452,488,1.5742
622.9495,472,1.5226
622.954,462,1.4903
622.9583,450,1.4516
622.9626,438,1.4129
622.967,429,1.3839
622.9713,423,1.3645
622.9756,424,1.3677
622.9799,428,1.3806
622.9842,418,1.3484
622.9885,417,1.3452
622.9927,409,1.3194
622.9971,402,1.2968
623.0014,406,1.3097
623.0057,418,1.3484
623.01,424,1.3677
623.0143,431,1.3903
623.0185,426,1.3742
623.0229,445,1.4355
623.0272,459,1.4806
623.0315,462,1.4903
623.0358,469,1.5129
623.04,473,1.5258
623.0444,471,1.5194
623.0486,460,1.4839
623.0529,452,1.4581
623.0572,446,1.4387
623.0616,445,1.4355
623.0659,443,1.429
623.0703,451,1.4548
623.0746,449,1.4484
623.0789,448,1.4452
623.0833,437,1.4097
623.0876,442,1.4258
623.0919,462,1.4903
623.0963,474,1.529
623.1006,475,1.5323
623.1049,478,1.5419
623.1093,482,1.5548
623.1136,481,1.5516
623.1179,487,1.571
623.1223,506,1.6323
623.1266,494,1.5935
623.131,480,1.5484
623.1353,472,1.5226
623.1396,467,1.5065
623.1439,474,1.529
623.1483,485,1.5645
623.1526,479,1.5452
623.157,482,1.5548
623.1613,481,1.5516
623.1657,474,1.529
623.1699,462,1.4903
623.1742,459,1.4806
623.1785,466,1.5032
623.1828,482,1.5548
623.1872,493,1.5903
623.1914,500,1.6129
623.1957,505,1.629
623.2,499,1.6097
623.2043,494,1.5935
623.2086,492,1.5871
623.2129,491,1.5839
623.2172,499,1.6097
623.2215,508,1.6387
623.2258,500,1.6129
623.2301,481,1.5516
623.2344,477,1.5387
623.2387,472,1.5226
623.243,480,1.5484
623.2473,500,1.6129
623.2516,505,1.629
623.256,504,1.6258
623.2603,501,1.6161
623.2646,492,1.5871
623.269,493,1.5903
623.2733,488,1.5742
623.2776,480,1.5484
623.282,474,1.529
623.2863,479,1.5452
623.2907,480,1.5484
623.2951,489,1.5774
623.2996,491,1.5839
623.304,477,1.5387
623.3083,468,1.5097
623.3127,465,1.5
623.3171,462,1.4903
623.3214,463,1.4935
623.3257,466,1.5032
623.33,461,1.4871
623.3342,460,1.4839
623.3385,470,1.5161
623.3428,485,1.5645
623.3471,486,1.5677
623.3514,484,1.5613
623.3557,478,1.5419
623.36,481,1.5516
623.3643,488,1.5742
623.3685,490,1.5806
623.3728,492,1.5871
623.3771,494,1.5935
623.3814,504,1.6258
623.3856,508,1.6387
623.3898,515,1.6613
623.3941,497,1.6032
623.3984,480,1.5484
623.4026,483,1.5581
623.4069,480,1.5484
623.4112,481,1.5516
623.4155,483,1.5581
623.4197,479,1.5452
623.424,474,1.529
623.4283,479,1.5452
623.4325,478,1.5419
623.4368,473,1.5258
623.4411,467,1.5065
623.4454,472,1.5226
623.4496,478,1.5419
623.4539,477,1.5387
623.4583,474,1.529
623.4626,479,1.5452
623.4669,490,1.5806
623.4712,485,1.5645
623.4755,477,1.5387
623.4798,474,1.529
623.484,483,1.5581
623.4883,492,1.5871
623.4926,505,1.629
623.4969,507,1.6355
623.5012,503,1.6226
623.5055,492,1.5871
623.5098,493,1.5903
623.5141,505,1.629
623.5184,521,1.6806
623.5226,551,1.7774
623.5269,608,1.9613
623.5312,669,2.1581
623.5355,728,2.3484
623.5398,719,2.3194
623.5441,608,1.9613
623.5484,493,1.5903
623.5527,428,1.3806
623.557,416,1.3419
623.5613,404,1.3032
623.5656,380,1.2258
623.5699,368,1.1871
623.5741,389,1.2548
623.5784,428,1.3806
623.5827,458,1.4774
623.5871,473,1.5258
623.5914,478,1.5419
623.5958,478,1.5419
623.6002,477,1.5387
623.6046,477,1.5387
623.6088,492,1.5871
623.6132,512,1.6516
623.6175,519,1.6742
623.6218,521,1.6806
623.6261,525,1.6935
623.6303,519,1.6742
623.6346,521,1.6806
623.6389,526,1.6968
623.6432,531,1.7129
623.6475,535,1.7258
623.6518,538,1.7355
623.6561,535,1.7258
623.6605,525,1.6935
623.6648,524,1.6903
623.6691,529,1.7065
623.6733,531,1.7129
623.6776,526,1.6968
623.6818,524,1.6903
623.6861,530,1.7097
623.6903,539,1.7387
623.6946,541,1.7452
623.6988,535,1.7258
623.7031,525,1.6935
623.7073,529,1.7065
623.7116,546,1.7613
623.7158,557,1.7968
623.7201,571,1.8419
623.7244,587,1.8935
623.7287,589,1.9
623.7329,584,1.8839
623.7372,575,1.8548
623.7415,575,1.8548
623.7457,575,1.8548
623.7499,576,1.8581
623.7542,572,1.8452
623.7585,574,1.8516
623.7627,579,1.8677
623.7671,577,1.8613
623.7714,571,1.8419
623.7757,564,1.8194
623.78,549,1.771
623.7843,529,1.7065
623.7886,516,1.6645
623.7929,516,1.6645
623.7971,513,1.6548
623.8014,505,1.629
623.8057,486,1.5677
623.81,461,1.4871
623.8143,445,1.4355
623.8186,433,1.3968
623.8229,418,1.3484
623.8272,407,1.3129
623.8315,403,1.3
623.8358,401,1.2935
623.8401,404,1.3032
623.8443,410,1.3226
623.8486,415,1.3387
623.8529,421,1.3581
623.8572,422,1.3613
623.8615,420,1.3548
623.8658,421,1.3581
623.8701,426,1.3742
623.8744,436,1.4065
623.8786,433,1.3968
623.8829,429,1.3839
623.8872,414,1.3355
623.8915,411,1.3258
623.8958,432,1.3935
623.9001,454,1.4645
623.9044,470,1.5161
623.9087,468,1.5097
623.913,456,1.471
623.9173,455,1.4677
623.9216,442,1.4258
623.9259,422,1.3613
623.9302,413,1.3323
623.9345,421,1.3581
623.9388,430,1.3871
623.9431,436,1.4065
623.9474,445,1.4355
623.9517,449,1.4484
623.9559,459,1.4806
623.9602,473,1.5258
623.9645,485,1.5645
623.9688,495,1.5968
623.9731,500,1.6129
623.9774,503,1.6226
623.9817,506,1.6323
623.986,506,1.6323
623.9902,503,1.6226
623.9946,505,1.629
623.9988,509,1.6419
624.0031,501,1.6161
624.0074,491,1.5839
624.0117,486,1.5677
624.016,486,1.5677
624.0203,485,1.5645
624.0246,474,1.529
624.0289,461,1.4871
624.0332,449,1.4484
624.0375,446,1.4387
624.0417,445,1.4355
624.046,444,1.4323
624.0503,448,1.4452
624.0546,459,1.4806
624.0589,465,1.5
624.0632,469,1.5129
624.0681,469,1.5129
624.0725,470,1.5161
624.0768,470,1.5161
624.081,463,1.4935
624.0854,468,1.5097
624.0896,475,1.5323
624.0939,478,1.5419
624.0982,483,1.5581
624.1025,477,1.5387
624.1068,463,1.4935
624.1111,457,1.4742
624.1154,452,1.4581
624.1197,451,1.4548
624.1239,457,1.4742
624.1282,462,1.4903
624.1325,465,1.5
624.1368,467,1.5065
624.1411,468,1.5097
624.1454,469,1.5129
624.1497,468,1.5097
624.154,465,1.5
624.1582,468,1.5097
624.1625,468,1.5097
624.1668,472,1.5226
624.1711,473,1.5258
624.1754,479,1.5452
624.1797,484,1.5613
624.184,487,1.571
624.1883,487,1.571
624.1927,483,1.5581
624.1972,476,1.5355
624.2016,477,1.5387
624.2059,485,1.5645
624.2102,494,1.5935
624.2145,499,1.6097
624.2188,503,1.6226
624.2231,502,1.6194
624.2274,502,1.6194
624.2317,508,1.6387
624.236,511,1.6484
624.2403,507,1.6355
624.2446,500,1.6129
624.2488,493,1.5903
624.2531,483,1.5581
624.2574,481,1.5516
624.2617,486,1.5677
624.2661,494,1.5935
624.2704,495,1.5968
624.2747,487,1.571
624.279,484,1.5613
624.2832,489,1.5774
624.2875,487,1.571
624.2917,478,1.5419
624.296,481,1.5516
624.3002,485,1.5645
624.3045,486,1.5677
624.3087,480,1.5484
624.313,480,1.5484
624.3173,485,1.5645
624.3215,484,1.5613
624.3258,479,1.5452
624.33,475,1.5323
624.3344,478,1.5419
624.3387,482,1.5548
624.3429,482,1.5548
624.3472,480,1.5484
624.3515,497,1.6032
624.3557,523,1.6871
624.36,561,1.8097
624.3642,616,1.9871
624.3685,677,2.1839
624.3728,691,2.229
624.3772,600,1.9355
624.3814,494,1.5935
624.3857,444,1.4323
624.39,457,1.4742
624.3943,473,1.5258
624.3986,448,1.4452
624.4029,421,1.3581
624.4071,410,1.3226
624.4114,437,1.4097
624.4157,479,1.5452
624.4201,504,1.6258
624.4244,511,1.6484
624.4287,511,1.6484
624.433,510,1.6452
624.4372,507,1.6355
624.4415,503,1.6226
624.4458,502,1.6194
624.4501,507,1.6355
624.4544,508,1.6387
624.4587,508,1.6387
624.4629,513,1.6548
624.4672,517,1.6677
624.4715,519,1.6742
624.4758,523,1.6871
624.4801,522,1.6839
624.4844,520,1.6774
624.4887,520,1.6774
624.493,520,1.6774
624.4974,515,1.6613
624.5018,514,1.6581
624.5062,518,1.671
624.5105,520,1.6774
624.5148,520,1.6774
624.5191,527,1.7
624.5234,530,1.7097
624.5277,525,1.6935
624.532,521,1.6806
624.5363,522,1.6839
624.5406,527,1.7
624.5449,532,1.7161
624.5492,531,1.7129
624.5535,540,1.7419
624.5578,547,1.7645
624.5621,556,1.7935
624.5664,561,1.8097
624.5707,567,1.829
624.575,574,1.8516
624.5793,575,1.8548
624.5836,576,1.8581
624.5878,580,1.871
624.5921,581,1.8742
624.5964,581,1.8742
624.6006,574,1.8516
624.6049,570,1.8387
624.6092,564,1.8194
624.6135,559,1.8032
624.6177,550,1.7742
624.622,538,1.7355
624.6263,525,1.6935
624.6306,514,1.6581
624.6349,505,1.629
624.6391,496,1.6
624.6434,478,1.5419
624.6477,466,1.5032
624.6519,462,1.4903
624.6562,452,1.4581
624.6604,440,1.4194
624.6647,436,1.4065
624.669,443,1.429
624.6733,464,1.4968
624.6776,466,1.5032
624.6819,457,1.4742
624.6862,451,1.4548
624.6905,452,1.4581
624.6947,446,1.4387
624.699,453,1.4613
624.7033,461,1.4871
624.7076,468,1.5097
624.7119,474,1.529
624.7162,476,1.5355
624.7205,475,1.5323
624.7249,470,1.5161
624.7292,469,1.5129
624.7336,468,1.5097
624.7379,474,1.529
624.7422,478,1.5419
624.7466,482,1.5548
624.7509,481,1.5516
624.7552,479,1.5452
624.7596,480,1.5484
624.7639,473,1.5258
624.7682,471,1.5194
624.7726,475,1.5323
624.7769,478,1.5419
624.7812,485,1.5645
624.7856,481,1.5516
624.7899,474,1.529
624.7942,471,1.5194
624.7986,471,1.5194
624.8029,478,1.5419
624.8072,479,1.5452
624.8116,478,1.5419
624.8159,478,1.5419
624.8203,479,1.5452
624.8246,479,1.5452
624.8289,482,1.5548
624.8333,483,1.5581
624.8376,480,1.5484
624.8419,473,1.5258
624.8463,475,1.5323
624.8506,475,1.5323
624.8549,475,1.5323
624.8593,474,1.529
624.8636,475,1.5323
624.8679,476,1.5355
624.8723,475,1.5323
624.8766,474,1.529
624.8809,473,1.5258
624.8852,472,1.5226
624.8895,472,1.5226
624.8938,475,1.5323
624.8981,480,1.5484
624.9024,486,1.5677
624.9067,493,1.5903
624.911,495,1.5968
624.9153,494,1.5935
624.9196,491,1.5839
624.9239,489,1.5774
624.9282,488,1.5742
624.9325,487,1.571
624.9368,487,1.571
624.9411,486,1.5677
624.9454,484,1.5613
624.9497,484,1.5613
624.954,486,1.5677
624.9583,487,1.571
624.9625,487,1.571
624.9668,484,1.5613
624.9711,484,1.5613
624.9755,483,1.5581
624.9798,481,1.5516
624.9841,479,1.5452
624.9885,479,1.5452
624.9928,482,1.5548
624.9972,484,1.5613
625.0015,484,1.5613
625.0059,484,1.5613
625.0102,488,1.5742
625.0145,491,1.5839
625.0189,491,1.5839
625.0232,490,1.5806
625.0275,489,1.5774
625.0319,492,1.5871
625.0362,494,1.5935
625.0405,494,1.5935
625.0449,498,1.6065
625.0492,502,1.6194
625.0535,508,1.6387
625.0579,514,1.6581
625.0622,521,1.6806
625.0665,526,1.6968
625.0709,526,1.6968
625.0752,527,1.7
625.0796,526,1.6968
625.0839,526,1.6968
625.0882,518,1.671
625.0925,511,1.6484
625.0969,506,1.6323
625.1013,502,1.6194
625.1056,501,1.6161
625.1099,499,1.6097
625.1142,500,1.6129
625.1185,494,1.5935
625.1229,488,1.5742
625.1271,484,1.5613
625.1314,486,1.5677
625.1357,491,1.5839
625.14,495,1.5968
625.1443,494,1.5935
625.1486,498,1.6065
625.1529,505,1.629
625.1572,506,1.6323
625.1615,503,1.6226
625.1658,499,1.6097
625.1701,497,1.6032
625.1744,498,1.6065
625.1787,502,1.6194
625.1831,500,1.6129
625.1873,496,1.6
625.1916,504,1.6258
625.1959,526,1.6968
625.2002,560,1.8065
625.2045,614,1.9806
625.2088,680,2.1935
625.2131,733,2.3645
625.2174,694,2.2387
625.2217,580,1.871
625.226,492,1.5871
625.2303,466,1.5032
625.2346,478,1.5419
625.2389,469,1.5129
625.2432,440,1.4194
625.2475,421,1.3581
625.2518,436,1.4065
625.2561,470,1.5161
625.2604,500,1.6129
625.2647,515,1.6613
625.269,517,1.6677
625.2733,516,1.6645
625.2776,518,1.671
625.282,520,1.6774
625.2863,524,1.6903
625.2906,524,1.6903
625.295,522,1.6839
625.2993,526,1.6968
625.3036,532,1.7161
625.308,528,1.7032
625.3123,525,1.6935
625.3166,525,1.6935
625.3209,527,1.7
625.3253,525,1.6935
625.3296,525,1.6935
625.334,526,1.6968
625.3383,529,1.7065
625.3426,535,1.7258
625.3471,546,1.7613
625.3514,550,1.7742
625.3557,548,1.7677
625.3601,546,1.7613
625.3644,546,1.7613
625.3687,552,1.7806
625.3731,552,1.7806
625.3774,554,1.7871
625.3817,560,1.8065
625.3861,564,1.8194
625.3904,568,1.8323
625.3948,566,1.8258
625.3992,570,1.8387
625.4036,572,1.8452
625.4079,576,1.8581
625.4122,579,1.8677
625.4165,582,1.8774
625.4208,597,1.9258
625.4251,601,1.9387
625.4294,597,1.9258
625.4337,598,1.929
625.438,597,1.9258
625.4423,598,1.929
625.4466,597,1.9258
625.4509,579,1.8677
625.4552,557,1.7968
625.4595,545,1.7581
625.4638,529,1.7065
625.4681,510,1.6452
625.4724,499,1.6097
625.4767,495,1.5968
625.481,495,1.5968
625.4853,482,1.5548
625.4896,475,1.5323
625.4939,471,1.5194
625.4982,470,1.5161
625.5024,460,1.4839
625.5067,453,1.4613
625.511,439,1.4161
625.5153,444,1.4323
625.5196,437,1.4097
625.5243,429,1.3839
625.533,430,1.3871
625.5375,422,1.3613
625.542,417,1.3452
625.5465,436,1.4065
625.551,448,1.4452
625.5554,453,1.4613
625.5597,444,1.4323
625.564,437,1.4097
625.5683,435,1.4032
625.5726,434,1.4
625.5769,439,1.4161
625.5813,449,1.4484
625.5856,462,1.4903
625.5899,466,1.5032
625.5941,465,1.5
625.5984,462,1.4903
625.6027,471,1.5194
625.607,489,1.5774
625.6112,493,1.5903
625.6155,498,1.6065
625.6198,498,1.6065
625.624,497,1.6032
625.6283,496,1.6
625.6326,494,1.5935
625.6368,491,1.5839
625.6411,489,1.5774
625.6454,488,1.5742
625.6497,490,1.5806
625.6539,491,1.5839
625.6582,493,1.5903
625.6625,492,1.5871
625.6667,492,1.5871
625.671,495,1.5968
625.6753,504,1.6258
625.6795,507,1.6355
625.6839,501,1.6161
625.6882,494,1.5935
625.6925,490,1.5806
625.6969,499,1.6097
625.7012,494,1.5935
625.7055,486,1.5677
625.7099,482,1.5548
625.7142,479,1.5452
625.7186,477,1.5387
625.7229,476,1.5355
625.7272,476,1.5355
625.7315,474,1.529
625.7359,472,1.5226
625.7402,470,1.5161
625.7446,474,1.529
625.7489,480,1.5484
625.7532,485,1.5645
625.7614,491,1.5839
625.7659,489,1.5774
625.7702,482,1.5548
625.7746,492,1.5871
625.7789,508,1.6387
625.7832,508,1.6387
625.7876,503,1.6226
625.7919,503,1.6226
625.7962,491,1.5839
625.8005,495,1.5968
625.8048,502,1.6194
625.809,498,1.6065
625.8133,488,1.5742
625.8176,485,1.5645
625.8219,480,1.5484
625.8262,475,1.5323
625.8305,478,1.5419
625.8348,485,1.5645
625.8391,489,1.5774
625.8434,493,1.5903
625.8477,494,1.5935
625.852,492,1.5871
625.8563,489,1.5774
625.8606,488,1.5742
625.8649,487,1.571
625.8692,493,1.5903
625.8735,500,1.6129
625.8778,504,1.6258
625.8821,507,1.6355
625.8864,510,1.6452
625.8907,509,1.6419
625.895,506,1.6323
625.8994,511,1.6484
625.9037,512,1.6516
625.908,515,1.6613
625.9123,520,1.6774
625.9167,524,1.6903
625.921,523,1.6871
625.9254,517,1.6677
625.9297,508,1.6387
625.934,506,1.6323
625.9384,516,1.6645
625.9427,516,1.6645
625.9471,512,1.6516
625.9514,505,1.629
625.9557,505,1.629
625.96,502,1.6194
625.9643,495,1.5968
625.9685,494,1.5935
625.9729,496,1.6
625.9771,494,1.5935
625.9815,493,1.5903
625.9857,491,1.5839
625.9901,493,1.5903
625.9946,500,1.6129
625.9989,501,1.6161
626.0033,496,1.6
626.0077,492,1.5871
626.012,494,1.5935
626.0163,493,1.5903
626.0206,496,1.6
626.0249,497,1.6032
626.0292,519,1.6742
626.0335,546,1.7613
626.0378,593,1.9129
626.0421,664,2.1419
626.0464,739,2.3839
626.0507,741,2.3903
626.055,636,2.0516
626.0593,523,1.6871
626.0635,465,1.5
626.0678,457,1.4742
626.0721,449,1.4484
626.0764,422,1.3613
626.0807,409,1.3194
626.085,431,1.3903
626.0893,469,1.5129
626.0936,503,1.6226
626.0978,516,1.6645
626.1021,521,1.6806
626.1064,525,1.6935
626.1106,521,1.6806
626.1149,522,1.6839
626.1191,522,1.6839
626.1234,521,1.6806
626.1277,522,1.6839
626.1319,523,1.6871
626.1362,526,1.6968
626.1404,536,1.729
626.1447,529,1.7065
626.149,524,1.6903
626.1532,528,1.7032
626.1575,527,1.7
626.1617,523,1.6871
626.166,526,1.6968
626.1702,529,1.7065
626.1745,530,1.7097
626.1787,526,1.6968
626.183,534,1.7226
626.1872,537,1.7323
626.1915,540,1.7419
626.1958,545,1.7581
626.2001,546,1.7613
626.2044,541,1.7452
626.2087,538,1.7355
626.213,542,1.7484
626.2173,548,1.7677
626.2216,553,1.7839
626.2258,554,1.7871
626.2302,564,1.8194
626.2345,572,1.8452
626.2388,581,1.8742
626.243,585,1.8871
626.2473,586,1.8903
626.2516,587,1.8935
626.2559,589,1.9
626.2602,588,1.8968
626.2645,586,1.8903
626.2688,585,1.8871
626.2731,585,1.8871
626.2774,588,1.8968
626.2817,586,1.8903
626.286,577,1.8613
626.2903,561,1.8097
626.2948,551,1.7774
626.2992,548,1.7677
626.3036,533,1.7194
626.3079,521,1.6806
626.3122,506,1.6323
626.3165,492,1.5871
626.3208,477,1.5387
626.3251,460,1.4839
626.3294,449,1.4484
626.3337,445,1.4355
626.338,445,1.4355
626.3423,445,1.4355
626.3466,442,1.4258
626.3509,439,1.4161
626.3552,436,1.4065
626.3594,437,1.4097
626.3637,438,1.4129
626.368,439,1.4161
626.3723,437,1.4097
626.3766,441,1.4226
626.3808,441,1.4226
626.3852,442,1.4258
626.3896,445,1.4355
626.3939,446,1.4387
626.3982,443,1.429
626.4024,452,1.4581
626.4067,459,1.4806
626.4109,461,1.4871
626.4152,464,1.4968
626.4195,464,1.4968
626.4237,465,1.5
626.4279,474,1.529
626.4322,478,1.5419
626.4365,471,1.5194
626.4408,463,1.4935
626.445,461,1.4871
626.4493,465,1.5
626.4535,462,1.4903
626.4578,467,1.5065
626.4621,469,1.5129
626.4663,469,1.5129
626.4706,472,1.5226
626.4748,470,1.5161
626.4791,476,1.5355
626.4834,474,1.529
626.4876,472,1.5226
626.4919,475,1.5323
626.4961,476,1.5355
626.5005,465,1.5
626.5048,462,1.4903
626.5091,468,1.5097
626.5134,476,1.5355
626.5177,481,1.5516
626.522,479,1.5452
626.5263,477,1.5387
626.5305,483,1.5581
626.5348,484,1.5613
626.5391,475,1.5323
626.5434,470,1.5161
626.5477,466,1.5032
626.552,470,1.5161
626.5563,476,1.5355
626.5606,480,1.5484
626.5649,487,1.571
626.5691,495,1.5968
626.5734,499,1.6097
626.5777,494,1.5935
626.582,493,1.5903
626.5863,478,1.5419
626.5906,467,1.5065
626.5949,470,1.5161
626.5992,475,1.5323
626.6035,477,1.5387
626.6078,478,1.5419
626.6121,482,1.5548
626.6163,486,1.5677
626.6207,489,1.5774
626.625,485,1.5645
626.6292,478,1.5419
626.6335,480,1.5484
626.6378,492,1.5871
626.6421,487,1.571
626.6464,481,1.5516
626.6507,478,1.5419
626.6549,479,1.5452
626.6592,484,1.5613
626.6635,483,1.5581
626.6678,481,1.5516
626.6721,481,1.5516
626.6763,484,1.5613
626.6806,489,1.5774
626.6849,502,1.6194
626.6892,507,1.6355
626.6935,510,1.6452
626.6979,504,1.6258
626.7022,508,1.6387
626.7065,521,1.6806
626.7108,537,1.7323
626.7151,543,1.7516
626.7194,536,1.729
626.7237,508,1.6387
626.728,493,1.5903
626.7323,487,1.571
626.7366,485,1.5645
626.7408,479,1.5452
626.7451,476,1.5355
626.7494,480,1.5484
626.7538,470,1.5161
626.758,469,1.5129
626.7623,471,1.5194
626.7666,496,1.6
626.7709,502,1.6194
626.7752,489,1.5774
626.7795,480,1.5484
626.7838,478,1.5419
626.7881,479,1.5452
626.7924,477,1.5387
626.7966,480,1.5484
626.8009,485,1.5645
626.8053,493,1.5903
626.8095,505,1.629
626.8138,507,1.6355
626.8181,494,1.5935
626.8224,478,1.5419
626.8267,479,1.5452
626.831,498,1.6065
626.8353,539,1.7387
626.8396,600,1.9355
626.8438,677,2.1839
626.8481,728,2.3484
626.8524,664,2.1419
626.8567,547,1.7645
626.861,456,1.471
626.8653,429,1.3839
626.8696,433,1.3968
626.8739,418,1.3484
626.8782,394,1.271
626.8825,403,1.3
626.8868,434,1.4
626.8911,474,1.529
626.8956,501,1.6161
626.8999,512,1.6516
626.9043,509,1.6419
626.9087,502,1.6194
626.913,501,1.6161
626.9173,506,1.6323
626.9216,509,1.6419
626.9259,509,1.6419
626.9302,510,1.6452
626.9345,508,1.6387
626.9388,509,1.6419
626.9431,509,1.6419
626.9474,512,1.6516
626.9517,513,1.6548
626.956,519,1.6742
626.9603,523,1.6871
626.9646,522,1.6839
626.9689,531,1.7129
626.9732,528,1.7032
626.9775,529,1.7065
626.9818,533,1.7194
626.9861,532,1.7161
626.9903,532,1.7161
626.9946,532,1.7161
626.999,539,1.7387
627.0033,541,1.7452
627.0076,537,1.7323
627.0119,539,1.7387
627.0162,551,1.7774
627.0204,555,1.7903
627.0247,544,1.7548
627.029,544,1.7548
627.0333,553,1.7839
627.0375,560,1.8065
627.0418,561,1.8097
627.0461,561,1.8097
627.0503,570,1.8387
627.0546,574,1.8516
627.0589,577,1.8613
627.0632,576,1.8581
627.0674,575,1.8548
627.0717,576,1.8581
627.076,573,1.8484
627.0802,569,1.8355
627.0845,561,1.8097
627.0888,547,1.7645
627.0931,536,1.729
627.0973,523,1.6871
627.1016,497,1.6032
627.1059,469,1.5129
627.1102,460,1.4839
627.1145,459,1.4806
627.1188,462,1.4903
627.1231,453,1.4613
627.1274,445,1.4355
627.1317,433,1.3968
627.136,418,1.3484
627.1403,407,1.3129
627.1446,395,1.2742
627.1489,391,1.2613
627.1532,392,1.2645
627.1575,397,1.2806
627.1618,401,1.2935
627.1661,407,1.3129
627.1703,434,1.4
627.1746,452,1.4581
627.1789,457,1.4742
627.1832,465,1.5
627.1875,464,1.4968
627.1918,450,1.4516
627.1962,438,1.4129
627.2007,424,1.3677
627.2051,417,1.3452
627.2094,413,1.3323
627.2137,413,1.3323
627.218,419,1.3516
627.2223,426,1.3742
627.2266,431,1.3903
627.2308,432,1.3935
627.2351,429,1.3839
627.2393,428,1.3806
627.2436,423,1.3645
627.2479,421,1.3581
627.2521,422,1.3613
627.2564,429,1.3839
627.2606,434,1.4
627.2649,447,1.4419
627.2691,460,1.4839
627.2734,464,1.4968
627.2777,479,1.5452
627.2819,486,1.5677
627.2862,474,1.529
627.2905,468,1.5097
627.2947,470,1.5161
627.299,470,1.5161
627.3033,472,1.5226
627.3075,482,1.5548
627.3118,492,1.5871
627.3161,496,1.6
627.3205,487,1.571
627.3248,479,1.5452
627.329,478,1.5419
627.3333,479,1.5452
627.3376,480,1.5484
627.3419,478,1.5419
627.3462,474,1.529
627.3505,472,1.5226
627.3548,472,1.5226
627.3591,467,1.5065
627.3634,461,1.4871
627.3677,460,1.4839
627.372,470,1.5161
627.3762,483,1.5581
627.3805,488,1.5742
627.3848,489,1.5774
627.3891,482,1.5548
627.3934,477,1.5387
627.3977,478,1.5419
627.402,480,1.5484
627.4063,484,1.5613
627.4105,485,1.5645
627.4148,487,1.571
627.4191,488,1.5742
627.4235,487,1.571
627.4277,490,1.5806
627.4321,494,1.5935
627.4364,493,1.5903
627.4413,487,1.571
627.4456,486,1.5677
627.4499,482,1.5548
627.4542,482,1.5548
627.4585,480,1.5484
627.4628,483,1.5581
627.4671,488,1.5742
627.4714,495,1.5968
627.4757,517,1.6677
627.48,531,1.7129
627.4843,533,1.7194
627.4886,535,1.7258
627.4929,538,1.7355
627.4971,536,1.729
627.5014,539,1.7387
627.5057,541,1.7452
627.51,540,1.7419
627.5143,538,1.7355
627.5186,531,1.7129
627.5229,523,1.6871
627.5272,515,1.6613
627.5315,518,1.671
627.5358,519,1.6742
627.54,519,1.6742
627.5444,514,1.6581
627.5486,513,1.6548
627.5529,513,1.6548
627.5572,513,1.6548
627.5615,518,1.671
627.5658,517,1.6677
627.5701,511,1.6484
627.5744,516,1.6645
627.5786,532,1.7161
627.5829,533,1.7194
627.5872,530,1.7097
627.5915,517,1.6677
627.5958,516,1.6645
627.6001,526,1.6968
627.6044,532,1.7161
627.6087,534,1.7226
627.613,535,1.7258
627.6173,545,1.7581
627.6216,574,1.8516
627.6259,626,2.0194
627.6301,695,2.2419
627.6345,743,2.3968
627.6387,708,2.2839
627.643,605,1.9516
627.6473,505,1.629
627.6516,458,1.4774
627.6559,451,1.4548
627.6602,443,1.429
627.6645,417,1.3452
627.6688,410,1.3226
627.6731,430,1.3871
627.6774,466,1.5032
627.6817,494,1.5935
627.686,508,1.6387
627.6904,516,1.6645
627.6947,514,1.6581
627.699,530,1.7097
627.7033,534,1.7226
627.7076,536,1.729
627.7119,540,1.7419
627.7162,536,1.729
627.7205,524,1.6903
627.7248,517,1.6677
627.7291,517,1.6677
627.7334,528,1.7032
627.7377,539,1.7387
627.742,532,1.7161
627.7463,516,1.6645
627.7506,500,1.6129
627.7549,501,1.6161
627.7592,514,1.6581
627.7635,519,1.6742
627.7678,521,1.6806
627.7722,519,1.6742
627.7764,520,1.6774
627.7808,519,1.6742
627.7851,527,1.7
627.7894,533,1.7194
627.7937,533,1.7194
627.7981,534,1.7226
627.8025,539,1.7387
627.8068,547,1.7645
627.8112,550,1.7742
627.8155,551,1.7774
627.8198,557,1.7968
627.8241,569,1.8355
627.8285,570,1.8387
627.8328,576,1.8581
627.8371,584,1.8839
627.8415,589,1.9
627.8458,588,1.8968
627.8501,587,1.8935
627.8544,588,1.8968
627.8587,585,1.8871
627.863,582,1.8774
627.8673,582,1.8774
627.8716,578,1.8645
627.8759,574,1.8516
627.8802,564,1.8194
627.8845,554,1.7871
627.8888,537,1.7323
627.8931,515,1.6613
627.8974,492,1.5871
627.9017,482,1.5548
627.9061,484,1.5613
627.9104,489,1.5774
627.9147,488,1.5742
627.919,473,1.5258
627.9233,455,1.4677
627.9276,445,1.4355
627.9318,434,1.4
627.9362,432,1.3935
627.9404,430,1.3871
627.9447,433,1.3968
627.949,430,1.3871
627.9533,432,1.3935
627.9576,437,1.4097
627.9619,452,1.4581
627.9662,447,1.4419
627.9705,442,1.4258
627.9748,438,1.4129
627.9791,439,1.4161
627.9834,444,1.4323
627.9877,443,1.429
627.992,444,1.4323
627.9963,447,1.4419
628.0005,447,1.4419
628.0049,444,1.4323
628.0092,443,1.429
628.0135,457,1.4742
628.0178,458,1.4774
628.0221,468,1.5097
628.0264,479,1.5452
628.0307,482,1.5548
628.035,482,1.5548
628.0393,470,1.5161
628.0436,470,1.5161
628.0479,474,1.529
628.0522,471,1.5194
628.0564,467,1.5065
628.0608,460,1.4839
628.0651,462,1.4903
628.0694,464,1.4968
628.0736,476,1.5355
628.0779,481,1.5516
628.0822,481,1.5516
628.0865,473,1.5258
628.0908,470,1.5161
628.0952,469,1.5129
628.0996,475,1.5323
628.104,484,1.5613
628.1083,485,1.5645
628.1126,468,1.5097
628.1169,454,1.4645
628.1212,449,1.4484
628.1254,451,1.4548
628.1297,451,1.4548
628.134,460,1.4839
628.1382,466,1.5032
628.1425,466,1.5032
628.1467,466,1.5032
628.151,465,1.5
628.1553,466,1.5032
628.1595,465,1.5
628.1638,464,1.4968
628.168,462,1.4903
628.1723,464,1.4968
628.1766,469,1.5129
628.1809,478,1.5419
628.1852,478,1.5419
628.1894,473,1.5258
628.1937,471,1.5194
628.1979,475,1.5323
628.2022,473,1.5258
628.2065,472,1.5226
628.2108,475,1.5323
628.2151,482,1.5548
628.2194,488,1.5742
628.2238,488,1.5742
628.2281,488,1.5742
628.2324,490,1.5806
628.2367,500,1.6129
628.2409,515,1.6613
628.2453,514,1.6581
628.2495,516,1.6645
628.2538,521,1.6806
628.2581,520,1.6774
628.2624,511,1.6484
628.2668,507,1.6355
628.2711,491,1.5839
628.2756,473,1.5258
628.2799,470,1.5161
628.2842,468,1.5097
628.2885,463,1.4935
628.2928,463,1.4935
628.2971,465,1.5
628.3014,465,1.5
628.3057,457,1.4742
628.31,458,1.4774
628.3143,457,1.4742
628.3186,461,1.4871
628.3229,465,1.5
628.3272,464,1.4968
628.3315,467,1.5065
628.3358,468,1.5097
628.3401,473,1.5258
628.3444,487,1.571
628.3487,498,1.6065
628.353,504,1.6258
628.3573,505,1.629
628.3615,499,1.6097
628.3658,497,1.6032
628.3701,511,1.6484
628.3744,557,1.7968
628.3787,610,1.9677
628.383,669,2.1581
628.3873,690,2.2258
628.3916,618,1.9935
628.3959,511,1.6484
628.4002,434,1.4
628.4045,423,1.3645
628.4088,424,1.3677
628.4132,410,1.3226
628.4175,391,1.2613
628.4218,399,1.2871
628.426,428,1.3806
