time_s,adc_raw,voltage
0,507,1.6355
0.0044,509,1.6419
0.0088,524,1.6903
0.0131,542,1.7484
0.0174,556,1.7935
0.0218,568,1.8323
0.0261,580,1.871
0.0305,589,1.9
0.0348,594,1.9161
0.0391,596,1.9226
0.0434,606,1.9548
0.0477,610,1.9677
0.0521,611,1.971
0.0564,607,1.9581
0.0607,607,1.9581
0.0651,607,1.9581
0.0695,606,1.9548
0.0738,601,1.9387
0.0781,596,1.9226
0.0824,597,1.9258
0.0866,600,1.9355
0.0908,602,1.9419
0.095,604,1.9484
0.0992,606,1.9548
0.1034,610,1.9677
0.1075,613,1.9774
0.1117,621,2.0032
0.1159,627,2.0226
0.1201,632,2.0387
0.1243,640,2.0645
0.1285,647,2.0871
0.1326,648,2.0903
0.1368,648,2.0903
0.1411,647,2.0871
0.1456,648,2.0903
0.1501,647,2.0871
0.1548,641,2.0677
0.1594,633,2.0419
0.1637,626,2.0194
0.1679,625,2.0161
0.172,625,2.0161
0.1763,620,2
0.1807,612,1.9742
0.1852,608,1.9613
0.19,604,1.9484
0.1947,601,1.9387
0.1993,595,1.9194
0.204,588,1.8968
0.2084,587,1.8935
0.2127,586,1.8903
0.2171,586,1.8903
0.2214,585,1.8871
0.2257,584,1.8839
0.23,585,1.8871
0.2343,582,1.8774
0.2386,580,1.871
0.2429,578,1.8645
0.2471,577,1.8613
0.2513,577,1.8613
0.2555,574,1.8516
0.2596,573,1.8484
0.2638,567,1.829
0.268,568,1.8323
0.2721,577,1.8613
0.2763,579,1.8677
0.2805,591,1.9065
0.2846,626,2.0194
0.2888,676,2.1806
0.293,686,2.2129
0.2972,588,1.8968
0.3013,462,1.4903
0.3055,379,1.2226
0.3097,356,1.1484
0.3138,348,1.1226
0.318,322,1.0387
0.3222,296,0.9548
0.3263,298,0.9613
0.3305,333,1.0742
0.3347,373,1.2032
0.3388,405,1.3065
0.343,417,1.3452
0.3471,413,1.3323
0.3513,406,1.3097
0.3555,399,1.2871
0.3597,394,1.271
0.3638,390,1.2581
0.368,389,1.2548
0.3722,386,1.2452
0.3763,384,1.2387
0.3805,382,1.2323
0.3847,381,1.229
0.3888,380,1.2258
0.393,377,1.2161
0.3972,375,1.2097
0.4013,374,1.2065
0.4055,376,1.2129
0.4097,378,1.2194
0.4139,376,1.2129
0.4181,376,1.2129
0.4223,383,1.2355
0.4265,385,1.2419
0.4307,384,1.2387
0.4349,383,1.2355
0.4391,382,1.2323
0.4433,380,1.2258
0.4475,378,1.2194
0.4517,377,1.2161
0.4559,378,1.2194
0.4601,383,1.2355
0.4642,390,1.2581
0.4684,395,1.2742
0.4726,398,1.2839
0.4767,396,1.2774
0.4809,397,1.2806
0.4851,399,1.2871
0.4892,404,1.3032
0.4934,411,1.3258
0.4976,419,1.3516
0.5017,423,1.3645
0.5059,427,1.3774
0.5101,430,1.3871
0.5142,433,1.3968
0.5184,435,1.4032
0.5226,437,1.4097
0.5267,437,1.4097
0.5309,437,1.4097
0.5351,434,1.4
0.5392,429,1.3839
0.5434,423,1.3645
0.5476,413,1.3323
0.5517,403,1.3
0.5559,390,1.2581
0.56,379,1.2226
0.5642,371,1.1968
0.5684,362,1.1677
0.5725,356,1.1484
0.5767,354,1.1419
0.5809,350,1.129
0.585,348,1.1226
0.5892,347,1.1194
0.5934,346,1.1161
0.5975,349,1.1258
0.6017,352,1.1355
0.6059,357,1.1516
0.61,364,1.1742
0.6142,372,1.2
0.6184,385,1.2419
0.6225,400,1.2903
0.6267,417,1.3452
0.6309,431,1.3903
0.635,447,1.4419
0.6392,467,1.5065
0.6434,483,1.5581
0.6475,496,1.6
0.6517,513,1.6548
0.6558,525,1.6935
0.66,539,1.7387
0.6642,551,1.7774
0.6683,558,1.8
0.6725,566,1.8258
0.6767,585,1.8871
0.6808,607,1.9581
0.685,623,2.0097
0.6892,637,2.0548
0.6933,649,2.0935
0.6975,661,2.1323
0.7017,666,2.1484
0.7058,670,2.1613
0.71,668,2.1548
0.7142,665,2.1452
0.7183,660,2.129
0.7225,664,2.1419
0.7266,667,2.1516
0.7308,667,2.1516
0.735,669,2.1581
0.7391,670,2.1613
0.7433,670,2.1613
0.7475,666,2.1484
0.7516,662,2.1355
0.7558,660,2.129
0.76,656,2.1161
0.7641,652,2.1032
0.7683,650,2.0968
0.7725,645,2.0806
0.7766,636,2.0516
0.7808,627,2.0226
0.7849,624,2.0129
0.7891,624,2.0129
0.7933,623,2.0097
0.7974,618,1.9935
0.8016,614,1.9806
0.8059,608,1.9613
0.8102,602,1.9419
0.8144,601,1.9387
0.8187,598,1.929
0.823,594,1.9161
0.8272,596,1.9226
0.8315,597,1.9258
0.8358,596,1.9226
0.84,595,1.9194
0.8443,592,1.9097
0.8485,593,1.9129
0.8528,592,1.9097
0.8571,588,1.8968
0.8614,581,1.8742
0.8656,580,1.871
0.8699,579,1.8677
0.8742,574,1.8516
0.8784,573,1.8484
0.8827,575,1.8548
0.887,579,1.8677
0.8913,579,1.8677
0.8955,569,1.8355
0.8998,554,1.7871
0.9041,541,1.7452
0.9084,529,1.7065
0.9127,515,1.6613
0.917,493,1.5903
0.9213,476,1.5355
0.9256,470,1.5161
0.9299,466,1.5032
0.9342,460,1.4839
0.9385,449,1.4484
0.9428,441,1.4226
0.9471,437,1.4097
0.9514,437,1.4097
0.9557,436,1.4065
0.96,437,1.4097
0.9643,438,1.4129
0.9686,435,1.4032
0.9728,427,1.3774
0.9772,418,1.3484
0.9814,411,1.3258
0.9858,406,1.3097
0.99,405,1.3065
0.9943,403,1.3
0.9987,402,1.2968
1.003,401,1.2935
1.0073,402,1.2968
1.0116,404,1.3032
1.0159,409,1.3194
1.0202,421,1.3581
1.0246,446,1.4387
1.029,477,1.5387
1.0334,507,1.6355
1.0377,529,1.7065
1.042,551,1.7774
1.0463,568,1.8323
1.0506,576,1.8581
1.0548,579,1.8677
1.0591,578,1.8645
1.0635,580,1.871
1.0677,580,1.871
1.072,567,1.829
1.0763,544,1.7548
1.0806,524,1.6903
1.0849,511,1.6484
1.0892,505,1.629
1.0935,512,1.6516
1.0978,518,1.671
1.1021,519,1.6742
1.1064,528,1.7032
1.1106,536,1.729
1.1149,545,1.7581
1.1191,550,1.7742
1.1234,547,1.7645
1.1277,545,1.7581
1.132,541,1.7452
1.1363,534,1.7226
1.1405,527,1.7
1.1448,526,1.6968
1.1491,529,1.7065
1.1534,531,1.7129
1.1576,535,1.7258
1.1619,540,1.7419
1.1661,547,1.7645
1.1704,557,1.7968
1.1746,560,1.8065
1.1789,562,1.8129
1.1832,568,1.8323
1.1874,591,1.9065
1.1917,621,2.0032
1.196,668,2.1548
1.2003,737,2.3774
1.2046,804,2.5935
1.2089,819,2.6419
1.2132,717,2.3129
1.2175,597,1.9258
1.2218,529,1.7065
1.2261,521,1.6806
1.2304,518,1.671
1.2347,496,1.6
1.239,480,1.5484
1.2433,495,1.5968
1.2476,536,1.729
1.2519,578,1.8645
1.2562,603,1.9452
1.2605,616,1.9871
1.2648,620,2
1.2691,624,2.0129
1.2734,623,2.0097
1.2777,624,2.0129
1.2819,622,2.0065
1.2862,619,1.9968
1.2905,621,2.0032
1.2948,622,2.0065
1.2992,623,2.0097
1.3035,619,1.9968
1.3078,617,1.9903
1.3122,618,1.9935
1.3165,615,1.9839
1.3208,611,1.971
1.3255,608,1.9613
1.33,605,1.9516
1.3345,601,1.9387
1.3389,599,1.9323
1.3432,602,1.9419
1.3475,605,1.9516
1.3518,602,1.9419
1.3562,604,1.9484
1.3605,607,1.9581
1.3648,608,1.9613
1.3691,610,1.9677
1.3734,607,1.9581
1.3777,607,1.9581
1.382,608,1.9613
1.3863,611,1.971
1.3906,612,1.9742
1.3949,610,1.9677
1.3993,611,1.971
1.4037,612,1.9742
1.4084,620,2
1.4127,618,1.9935
1.4171,618,1.9935
1.4213,617,1.9903
1.4256,615,1.9839
1.4298,614,1.9806
1.4341,609,1.9645
1.4384,605,1.9516
1.4426,600,1.9355
1.4469,594,1.9161
1.4512,585,1.8871
1.4555,576,1.8581
1.4598,566,1.8258
1.464,552,1.7806
1.4683,537,1.7323
1.4726,517,1.6677
1.4768,500,1.6129
1.4811,487,1.571
1.4853,474,1.529
1.4896,462,1.4903
1.4939,452,1.4581
1.4982,444,1.4323
1.5025,438,1.4129
1.5068,442,1.4258
1.5111,446,1.4387
1.5154,447,1.4419
1.5197,449,1.4484
1.524,447,1.4419
1.5282,443,1.429
1.5325,437,1.4097
1.5368,432,1.3935
1.541,431,1.3903
1.5453,434,1.4
1.5496,439,1.4161
1.5539,438,1.4129
1.5582,435,1.4032
1.5624,429,1.3839
1.5667,416,1.3419
1.571,404,1.3032
1.5753,402,1.2968
1.5796,414,1.3355
1.5838,431,1.3903
1.5881,444,1.4323
1.593,453,1.4613
1.5973,456,1.471
1.6016,462,1.4903
1.6059,465,1.5
1.6102,468,1.5097
1.6144,473,1.5258
1.6187,479,1.5452
1.6229,485,1.5645
1.6272,488,1.5742
1.6315,487,1.571
1.6357,490,1.5806
1.6399,491,1.5839
1.6442,494,1.5935
1.6485,498,1.6065
1.6527,498,1.6065
1.657,497,1.6032
1.6613,498,1.6065
1.6656,499,1.6097
1.6698,501,1.6161
1.6741,503,1.6226
1.6783,506,1.6323
1.6826,511,1.6484
1.6869,517,1.6677
1.6911,521,1.6806
1.6954,519,1.6742
1.6997,516,1.6645
1.704,515,1.6613
1.7082,520,1.6774
1.7126,523,1.6871
1.7168,519,1.6742
1.7212,519,1.6742
1.7254,520,1.6774
1.7297,526,1.6968
1.734,528,1.7032
1.7383,529,1.7065
1.7426,527,1.7
1.747,529,1.7065
1.7513,528,1.7032
1.7556,526,1.6968
1.7599,525,1.6935
1.7642,527,1.7
1.7685,530,1.7097
1.7727,532,1.7161
1.7771,538,1.7355
1.7814,540,1.7419
1.7857,541,1.7452
1.79,540,1.7419
1.7943,535,1.7258
1.7986,530,1.7097
1.8029,526,1.6968
1.8072,523,1.6871
1.8115,524,1.6903
1.8158,524,1.6903
1.8201,523,1.6871
1.8244,522,1.6839
1.8287,518,1.671
1.8335,513,1.6548
1.8378,510,1.6452
1.8421,510,1.6452
1.8464,511,1.6484
1.8507,511,1.6484
1.855,506,1.6323
1.8593,503,1.6226
1.8636,500,1.6129
1.8679,501,1.6161
1.8722,501,1.6161
1.8765,503,1.6226
1.8808,505,1.629
1.8851,505,1.629
1.8894,507,1.6355
1.8937,507,1.6355
1.898,503,1.6226
1.9023,503,1.6226
1.9066,504,1.6258
1.9109,504,1.6258
1.9152,506,1.6323
1.9194,507,1.6355
1.9238,509,1.6419
1.9288,512,1.6516
1.9332,511,1.6484
1.9375,507,1.6355
1.9418,502,1.6194
1.9461,505,1.629
1.9503,511,1.6484
1.9546,512,1.6516
1.9589,511,1.6484
1.9632,509,1.6419
1.9675,505,1.629
1.9718,500,1.6129
1.976,494,1.5935
1.9803,489,1.5774
1.9846,488,1.5742
1.9889,489,1.5774
1.9931,490,1.5806
1.9974,490,1.5806
2.0017,486,1.5677
2.006,486,1.5677
2.0103,489,1.5774
2.0146,492,1.5871
2.0189,493,1.5903
2.0232,491,1.5839
2.0275,487,1.571
2.0318,485,1.5645
2.0361,486,1.5677
2.0404,491,1.5839
2.0446,496,1.6
2.0489,499,1.6097
2.0532,500,1.6129
2.0575,502,1.6194
2.0618,506,1.6323
2.066,508,1.6387
2.0703,509,1.6419
2.0746,508,1.6387
2.0789,508,1.6387
2.0831,511,1.6484
2.0874,512,1.6516
2.0917,513,1.6548
2.096,527,1.7
2.1002,553,1.7839
2.1045,593,1.9129
2.1088,655,2.1129
2.1131,717,2.3129
2.1174,714,2.3032
2.1217,607,1.9581
2.126,496,1.6
2.1303,447,1.4419
2.1346,458,1.4774
2.1388,459,1.4806
2.1431,432,1.3935
2.1474,411,1.3258
2.1517,415,1.3387
2.156,447,1.4419
2.1603,484,1.5613
2.1646,508,1.6387
2.1689,517,1.6677
2.1732,519,1.6742
2.1774,519,1.6742
2.1817,524,1.6903
2.186,528,1.7032
2.1903,532,1.7161
2.1946,540,1.7419
2.1989,545,1.7581
2.2032,545,1.7581
2.2074,543,1.7516
2.2118,543,1.7516
2.2161,544,1.7548
2.2204,544,1.7548
2.2248,542,1.7484
2.2292,540,1.7419
2.2336,536,1.729
2.2379,534,1.7226
2.2422,537,1.7323
2.2465,543,1.7516
2.2508,549,1.771
2.2552,551,1.7774
2.2595,551,1.7774
2.2638,553,1.7839
2.268,554,1.7871
2.2724,559,1.8032
2.2767,565,1.8226
2.2809,570,1.8387
2.2852,571,1.8419
2.2895,575,1.8548
2.2938,577,1.8613
2.2981,580,1.871
2.3024,584,1.8839
2.3067,593,1.9129
2.311,599,1.9323
2.3153,601,1.9387
2.3196,606,1.9548
2.324,609,1.9645
2.3283,611,1.971
2.3326,611,1.971
2.3368,611,1.971
2.3411,610,1.9677
2.3454,610,1.9677
2.3496,606,1.9548
2.3539,600,1.9355
2.3581,597,1.9258
2.3624,587,1.8935
2.3666,574,1.8516
2.3709,561,1.8097
2.3752,546,1.7613
2.3794,531,1.7129
2.3837,516,1.6645
2.3879,505,1.629
2.3922,495,1.5968
2.3964,484,1.5613
2.4007,474,1.529
2.405,469,1.5129
2.4092,467,1.5065
2.4135,461,1.4871
2.4177,459,1.4806
2.422,459,1.4806
2.4263,460,1.4839
2.4306,461,1.4871
2.4349,461,1.4871
2.4392,460,1.4839
2.4435,461,1.4871
2.4478,465,1.5
2.452,469,1.5129
2.4563,473,1.5258
2.4606,473,1.5258
2.4649,473,1.5258
2.4692,475,1.5323
2.4735,475,1.5323
2.4778,475,1.5323
2.4821,477,1.5387
2.4864,479,1.5452
2.4906,478,1.5419
2.4949,478,1.5419
2.4992,476,1.5355
2.5035,478,1.5419
2.5078,477,1.5387
2.5121,475,1.5323
2.5164,477,1.5387
2.5207,480,1.5484
2.525,486,1.5677
2.5293,489,1.5774
2.5336,489,1.5774
2.5378,489,1.5774
2.5421,491,1.5839
2.5464,492,1.5871
2.5507,493,1.5903
2.555,495,1.5968
2.5593,497,1.6032
2.5636,497,1.6032
2.5679,494,1.5935
2.5721,493,1.5903
2.5764,491,1.5839
2.5807,489,1.5774
2.585,488,1.5742
2.5893,485,1.5645
2.5935,483,1.5581
2.5978,482,1.5548
2.6021,481,1.5516
2.6064,482,1.5548
2.6107,483,1.5581
2.615,483,1.5581
2.6192,483,1.5581
2.6235,479,1.5452
2.6278,476,1.5355
2.6321,472,1.5226
2.6364,469,1.5129
2.6407,468,1.5097
2.6449,474,1.529
2.6492,474,1.529
2.6535,469,1.5129
2.6578,463,1.4935
2.662,462,1.4903
2.6664,464,1.4968
2.6706,464,1.4968
2.6749,463,1.4935
2.6792,462,1.4903
2.6835,465,1.5
2.6877,469,1.5129
2.692,472,1.5226
2.6963,472,1.5226
2.7006,476,1.5355
2.7049,477,1.5387
2.7092,476,1.5355
2.7134,477,1.5387
2.7177,477,1.5387
2.722,475,1.5323
2.7263,477,1.5387
2.7305,478,1.5419
2.7349,475,1.5323
2.7391,471,1.5194
2.7434,473,1.5258
2.7477,473,1.5258
2.7519,472,1.5226
2.7562,470,1.5161
2.7605,471,1.5194
2.7648,474,1.529
2.7691,476,1.5355
2.7733,475,1.5323
2.7776,474,1.529
2.7819,476,1.5355
2.7861,482,1.5548
2.7904,491,1.5839
2.7947,499,1.6097
2.799,503,1.6226
2.8033,503,1.6226
2.8075,499,1.6097
2.8119,497,1.6032
2.8161,497,1.6032
2.8205,492,1.5871
2.8249,485,1.5645
2.8293,481,1.5516
2.8337,478,1.5419
2.838,477,1.5387
2.8423,478,1.5419
2.8466,480,1.5484
2.8508,482,1.5548
2.8551,484,1.5613
2.8594,485,1.5645
2.8637,486,1.5677
2.868,489,1.5774
2.8722,491,1.5839
2.8765,496,1.6
2.8808,500,1.6129
2.8851,502,1.6194
2.8893,501,1.6161
2.8936,499,1.6097
2.8979,497,1.6032
2.9022,496,1.6
2.9064,496,1.6
2.9107,497,1.6032
2.915,494,1.5935
2.9193,490,1.5806
2.9236,486,1.5677
2.9278,481,1.5516
2.9322,484,1.5613
2.9365,504,1.6258
2.9408,532,1.7161
2.9451,572,1.8452
2.9493,628,2.0258
2.9536,681,2.1968
2.9579,653,2.1065
2.9622,542,1.7484
2.9665,444,1.4323
2.971,404,1.3032
2.9754,415,1.3387
2.9797,408,1.3161
2.984,381,1.229
2.9883,367,1.1839
2.9926,373,1.2032
2.9969,386,1.2452
3.0012,394,1.271
3.0054,393,1.2677
3.0097,387,1.2484
3.014,384,1.2387
3.0183,388,1.2516
3.0226,397,1.2806
3.0269,399,1.2871
3.0312,395,1.2742
3.0354,391,1.2613
3.0397,396,1.2774
3.044,402,1.2968
3.0483,410,1.3226
3.0526,410,1.3226
3.0568,402,1.2968
3.0611,394,1.271
3.0654,387,1.2484
3.0697,384,1.2387
3.074,379,1.2226
3.0783,383,1.2355
3.0825,395,1.2742
3.0869,399,1.2871
3.0911,399,1.2871
3.0954,404,1.3032
3.0997,405,1.3065
3.104,404,1.3032
3.1083,402,1.2968
3.1126,403,1.3
3.1169,404,1.3032
3.1212,401,1.2935
3.1256,407,1.3129
3.1299,422,1.3613
3.1343,432,1.3935
3.1386,438,1.4129
3.143,457,1.4742
3.1473,481,1.5516
3.1516,501,1.6161
3.1559,516,1.6645
3.1603,525,1.6935
3.1646,533,1.7194
3.1689,541,1.7452
3.1732,545,1.7581
3.1775,550,1.7742
3.1818,554,1.7871
3.1861,556,1.7935
3.1904,556,1.7935
3.1947,551,1.7774
3.1989,542,1.7484
3.2033,531,1.7129
3.2076,523,1.6871
3.2119,508,1.6387
3.2162,495,1.5968
3.2205,483,1.5581
3.2248,474,1.529
3.2291,463,1.4935
3.2334,458,1.4774
3.2377,460,1.4839
3.242,461,1.4871
3.2463,467,1.5065
3.2506,468,1.5097
3.2549,466,1.5032
3.2592,463,1.4935
3.2635,461,1.4871
3.2678,466,1.5032
3.2721,475,1.5323
3.2764,486,1.5677
3.2807,492,1.5871
3.285,499,1.6097
3.2892,504,1.6258
3.2935,508,1.6387
3.2979,510,1.6452
3.3022,516,1.6645
3.3065,521,1.6806
3.3108,526,1.6968
3.3151,532,1.7161
3.3194,534,1.7226
3.3237,537,1.7323
3.328,539,1.7387
3.3323,543,1.7516
3.3365,548,1.7677
3.3408,550,1.7742
3.3451,551,1.7774
3.3494,553,1.7839
3.3537,555,1.7903
3.358,557,1.7968
3.3623,558,1.8
3.3666,555,1.7903
3.3709,551,1.7774
3.3752,549,1.771
3.3794,548,1.7677
3.3837,547,1.7645
3.388,546,1.7613
3.3923,543,1.7516
3.3966,545,1.7581
3.4008,543,1.7516
3.4052,542,1.7484
3.4095,540,1.7419
3.4138,536,1.729
3.418,533,1.7194
3.4224,533,1.7194
3.4266,536,1.729
3.4309,537,1.7323
3.4352,537,1.7323
3.4395,536,1.729
3.4438,538,1.7355
3.4481,540,1.7419
3.4524,541,1.7452
3.4567,540,1.7419
3.461,538,1.7355
3.4653,534,1.7226
3.4696,529,1.7065
3.4739,525,1.6935
3.4782,520,1.6774
3.4825,514,1.6581
3.4868,504,1.6258
3.4911,498,1.6065
3.4954,497,1.6032
3.4997,500,1.6129
3.504,500,1.6129
3.5083,501,1.6161
3.5126,498,1.6065
3.5169,491,1.5839
3.5212,488,1.5742
3.5255,488,1.5742
3.5298,489,1.5774
3.5341,491,1.5839
3.5384,493,1.5903
3.5427,493,1.5903
3.547,492,1.5871
3.5513,490,1.5806
3.5556,488,1.5742
3.5599,491,1.5839
3.5642,490,1.5806
3.5685,490,1.5806
3.5729,487,1.571
3.5771,486,1.5677
3.5814,481,1.5516
3.5857,477,1.5387
3.59,472,1.5226
3.5943,474,1.529
3.5986,479,1.5452
3.603,488,1.5742
3.6072,493,1.5903
3.6115,492,1.5871
3.6159,494,1.5935
3.6201,495,1.5968
3.6244,495,1.5968
3.6287,494,1.5935
3.633,490,1.5806
3.6373,491,1.5839
3.6416,492,1.5871
3.6459,492,1.5871
3.6501,495,1.5968
3.6544,503,1.6226
3.6587,512,1.6516
3.6631,519,1.6742
3.6673,518,1.671
3.6716,512,1.6516
3.676,502,1.6194
3.6803,499,1.6097
3.6846,503,1.6226
3.6895,509,1.6419
3.6938,508,1.6387
3.6982,500,1.6129
3.7025,496,1.6
3.7068,496,1.6
3.7111,497,1.6032
3.7155,495,1.5968
3.7198,493,1.5903
3.7274,489,1.5774
3.7318,486,1.5677
3.7362,486,1.5677
3.7405,485,1.5645
3.7448,487,1.571
3.7491,490,1.5806
3.7533,490,1.5806
3.7576,485,1.5645
3.7619,485,1.5645
3.7663,491,1.5839
3.7706,497,1.6032
3.7748,501,1.6161
3.7791,504,1.6258
3.7834,507,1.6355
3.7876,506,1.6323
3.7919,506,1.6323
3.7962,505,1.629
3.8009,515,1.6613
3.8052,538,1.7355
3.8095,570,1.8387
3.8138,623,2.0097
3.8181,689,2.2226
3.8224,728,2.3484
3.8267,659,2.1258
3.831,547,1.7645
3.8353,473,1.5258
3.8396,460,1.4839
3.8439,463,1.4935
3.8482,447,1.4419
3.8524,426,1.3742
3.8567,437,1.4097
3.861,480,1.5484
3.8653,524,1.6903
3.8696,549,1.771
3.8739,550,1.7742
3.8782,549,1.771
3.8825,548,1.7677
3.8868,548,1.7677
3.8911,546,1.7613
3.8954,540,1.7419
3.8997,540,1.7419
3.904,546,1.7613
3.9083,547,1.7645
3.9126,548,1.7677
3.9169,543,1.7516
3.9212,539,1.7387
3.9255,536,1.729
3.9298,535,1.7258
3.9341,541,1.7452
3.9384,547,1.7645
3.9427,548,1.7677
3.947,547,1.7645
3.9513,547,1.7645
3.9556,545,1.7581
3.9599,541,1.7452
3.9642,543,1.7516
3.9684,543,1.7516
3.9727,547,1.7645
3.9771,552,1.7806
3.9815,556,1.7935
3.9858,564,1.8194
3.9901,574,1.8516
3.9944,586,1.8903
3.9988,598,1.929
4.0032,611,1.971
4.0075,621,2.0032
4.0118,624,2.0129
4.0161,625,2.0161
4.0214,631,2.0355
4.0259,635,2.0484
4.0303,637,2.0548
4.0347,641,2.0677
4.039,648,2.0903
4.0433,652,2.1032
4.0476,656,2.1161
4.0519,654,2.1097
4.0562,652,2.1032
4.0611,649,2.0935
4.0654,642,2.071
4.0697,634,2.0452
4.074,624,2.0129
4.0784,608,1.9613
4.0826,590,1.9032
4.087,575,1.8548
4.0913,561,1.8097
4.0955,549,1.771
4.0998,537,1.7323
4.1041,527,1.7
4.1084,520,1.6774
4.1126,512,1.6516
4.1169,502,1.6194
4.1211,495,1.5968
4.1254,494,1.5935
4.1297,492,1.5871
4.134,492,1.5871
4.1382,491,1.5839
4.1425,492,1.5871
4.1467,497,1.6032
4.151,499,1.6097
4.1553,500,1.6129
4.1595,499,1.6097
4.1639,499,1.6097
4.1681,501,1.6161
4.1728,497,1.6032
4.1771,492,1.5871
4.1814,487,1.571
4.1857,487,1.571
4.19,495,1.5968
4.1943,501,1.6161
4.1985,504,1.6258
4.2028,510,1.6452
4.2071,512,1.6516
4.2114,511,1.6484
4.2157,509,1.6419
4.22,509,1.6419
4.2243,507,1.6355
4.2286,500,1.6129
4.2329,487,1.571
4.2372,475,1.5323
4.2414,468,1.5097
4.2459,460,1.4839
4.2502,451,1.4548
4.2545,447,1.4419
4.2588,448,1.4452
4.2631,450,1.4516
4.2673,452,1.4581
4.2716,452,1.4581
4.2759,457,1.4742
4.2802,467,1.5065
4.2844,473,1.5258
4.2887,475,1.5323
4.293,473,1.5258
4.2973,473,1.5258
4.3015,468,1.5097
4.3058,470,1.5161
4.3101,474,1.529
4.3144,479,1.5452
4.3186,482,1.5548
4.3229,486,1.5677
4.3272,489,1.5774
4.3321,485,1.5645
4.3363,478,1.5419
4.3406,479,1.5452
4.3449,485,1.5645
4.3491,487,1.571
4.3534,486,1.5677
4.3577,482,1.5548
4.3619,482,1.5548
4.3662,488,1.5742
4.3705,487,1.571
4.3748,487,1.571
4.3791,493,1.5903
4.3833,504,1.6258
4.3876,511,1.6484
4.3919,513,1.6548
4.3963,516,1.6645
4.4006,516,1.6645
4.4048,516,1.6645
4.4097,515,1.6613
4.414,517,1.6677
4.4182,525,1.6935
4.4225,529,1.7065
4.4268,529,1.7065
4.4311,530,1.7097
4.4354,532,1.7161
4.4397,533,1.7194
4.4439,534,1.7226
4.4482,532,1.7161
4.4525,533,1.7194
4.4567,532,1.7161
4.461,531,1.7129
4.4653,532,1.7161
4.4695,532,1.7161
4.4738,532,1.7161
4.4781,536,1.729
4.4824,538,1.7355
4.4867,539,1.7387
4.4912,536,1.729
4.4955,533,1.7194
4.4997,528,1.7032
4.504,527,1.7
4.5083,524,1.6903
4.5125,522,1.6839
4.5168,520,1.6774
4.5211,518,1.671
4.5255,520,1.6774
4.5298,527,1.7
4.5341,533,1.7194
4.5384,539,1.7387
4.5426,537,1.7323
4.5469,536,1.729
4.5511,535,1.7258
4.5554,539,1.7387
4.5597,546,1.7613
4.564,547,1.7645
4.5683,548,1.7677
4.5728,544,1.7548
4.5771,537,1.7323
4.5814,531,1.7129
4.5857,527,1.7
4.5899,523,1.6871
4.5942,523,1.6871
4.5985,524,1.6903
4.6028,524,1.6903
4.607,520,1.6774
4.6113,518,1.671
4.6156,517,1.6677
4.6198,517,1.6677
4.6245,517,1.6677
4.6289,519,1.6742
4.6334,523,1.6871
4.6385,523,1.6871
4.6428,525,1.6935
4.6471,527,1.7
4.6514,529,1.7065
4.6557,529,1.7065
4.6601,526,1.6968
4.6643,526,1.6968
4.6686,524,1.6903
4.6729,529,1.7065
4.6772,546,1.7613
4.6816,575,1.8548
4.6859,622,2.0065
4.6902,692,2.2323
4.6945,756,2.4387
4.6988,750,2.4194
4.7032,646,2.0839
4.7075,536,1.729
4.7118,480,1.5484
4.7161,477,1.5387
4.7204,475,1.5323
4.7247,455,1.4677
4.729,440,1.4194
4.7333,459,1.4806
4.7376,500,1.6129
4.742,536,1.729
4.7463,559,1.8032
4.7506,565,1.8226
4.7548,562,1.8129
4.7591,559,1.8032
4.7635,557,1.7968
4.7678,555,1.7903
4.7721,550,1.7742
4.7764,550,1.7742
4.7807,554,1.7871
4.7851,557,1.7968
4.7893,562,1.8129
4.7936,564,1.8194
4.7979,560,1.8065
4.8023,557,1.7968
4.8066,554,1.7871
4.8109,555,1.7903
4.8152,554,1.7871
4.8195,556,1.7935
4.8238,558,1.8
4.8281,563,1.8161
4.8324,565,1.8226
4.8367,565,1.8226
4.841,563,1.8161
4.8453,564,1.8194
4.8496,563,1.8161
4.8539,557,1.7968
4.8582,554,1.7871
4.863,554,1.7871
4.8673,554,1.7871
4.8716,551,1.7774
4.8759,549,1.771
4.8802,548,1.7677
4.8846,551,1.7774
4.8888,559,1.8032
4.8931,566,1.8258
4.8974,569,1.8355
4.9017,573,1.8484
4.9061,578,1.8645
4.9104,581,1.8742
4.9146,581,1.8742
4.9189,585,1.8871
4.9233,588,1.8968
4.9278,590,1.9032
4.9322,590,1.9032
4.9366,583,1.8806
4.9409,574,1.8516
4.9452,559,1.8032
4.9495,543,1.7516
4.9538,529,1.7065
4.9581,514,1.6581
4.9625,489,1.5774
4.9668,470,1.5161
4.9711,462,1.4903
4.9754,454,1.4645
4.9797,446,1.4387
4.984,437,1.4097
4.9883,428,1.3806
4.9926,421,1.3581
4.997,417,1.3452
5.0013,416,1.3419
5.0094,411,1.3258
5.0146,406,1.3097
5.0191,404,1.3032
5.0236,400,1.2903
5.0282,395,1.2742
5.0327,392,1.2645
5.0372,395,1.2742
5.0415,397,1.2806
5.0458,394,1.271
5.0502,390,1.2581
5.0545,387,1.2484
5.0588,389,1.2548
5.0631,393,1.2677
5.0674,396,1.2774
5.0717,401,1.2935
5.076,405,1.3065
5.0803,407,1.3129
5.0847,412,1.329
5.089,420,1.3548
5.0933,427,1.3774
5.0976,432,1.3935
5.1019,436,1.4065
5.1062,433,1.3968
5.1105,429,1.3839
5.1148,431,1.3903
5.1191,431,1.3903
5.1234,436,1.4065
5.1277,448,1.4452
5.132,452,1.4581
5.1363,449,1.4484
5.1406,450,1.4516
5.1449,454,1.4645
5.1497,459,1.4806
5.154,464,1.4968
5.1583,468,1.5097
5.1626,471,1.5194
5.1669,476,1.5355
5.1712,478,1.5419
5.1755,475,1.5323
5.1798,469,1.5129
5.1841,462,1.4903
5.1885,460,1.4839
5.1928,461,1.4871
5.1971,463,1.4935
5.2014,464,1.4968
5.2057,466,1.5032
5.21,464,1.4968
5.2144,459,1.4806
5.2187,444,1.4323
5.223,433,1.3968
5.2273,428,1.3806
5.2316,426,1.3742
5.2359,423,1.3645
5.2402,430,1.3871
5.2445,438,1.4129
5.2488,443,1.429
5.2531,443,1.429
5.2574,443,1.429
5.2617,448,1.4452
5.266,454,1.4645
5.2703,458,1.4774
5.2746,456,1.471
5.2789,456,1.471
5.2832,449,1.4484
5.2876,445,1.4355
5.2919,446,1.4387
5.2962,449,1.4484
5.3005,449,1.4484
5.3048,445,1.4355
5.3091,440,1.4194
5.3134,434,1.4
5.3177,430,1.3871
5.322,434,1.4
5.3263,439,1.4161
5.3306,439,1.4161
5.3349,443,1.429
5.3393,445,1.4355
5.3436,447,1.4419
5.3479,449,1.4484
5.3522,450,1.4516
5.3565,452,1.4581
5.3608,454,1.4645
5.3651,453,1.4613
5.3694,459,1.4806
5.3742,469,1.5129
5.3785,474,1.529
5.3828,478,1.5419
5.3871,479,1.5452
5.3914,482,1.5548
5.3957,487,1.571
5.4,490,1.5806
5.4043,488,1.5742
5.4086,480,1.5484
5.4129,479,1.5452
5.4173,479,1.5452
5.4216,480,1.5484
5.4259,482,1.5548
5.4301,480,1.5484
5.4345,480,1.5484
5.4388,477,1.5387
5.4431,478,1.5419
5.4474,477,1.5387
5.4517,480,1.5484
5.456,482,1.5548
5.4603,489,1.5774
5.4646,493,1.5903
5.4689,497,1.6032
5.4732,502,1.6194
5.4775,506,1.6323
5.4819,507,1.6355
5.4862,510,1.6452
5.4905,513,1.6548
5.4948,514,1.6581
5.4991,514,1.6581
5.5034,514,1.6581
5.5077,518,1.671
5.512,533,1.7194
5.5163,559,1.8032
5.5206,596,1.9226
5.525,648,2.0903
5.5295,711,2.2935
5.5339,747,2.4097
5.5383,667,2.1516
5.5426,545,1.7581
5.5469,469,1.5129
5.5512,462,1.4903
5.5555,472,1.5226
5.5599,451,1.4548
5.5646,424,1.3677
5.569,424,1.3677
5.5733,452,1.4581
5.5776,490,1.5806
5.582,519,1.6742
5.5863,530,1.7097
5.5906,531,1.7129
5.5951,525,1.6935
5.5994,521,1.6806
5.6038,522,1.6839
5.6081,525,1.6935
5.6124,532,1.7161
5.6167,531,1.7129
5.621,534,1.7226
5.6253,533,1.7194
5.6296,532,1.7161
5.634,535,1.7258
5.6384,542,1.7484
5.6427,546,1.7613
5.647,548,1.7677
5.6513,552,1.7806
5.6556,555,1.7903
5.6599,559,1.8032
5.6643,556,1.7935
5.6685,564,1.8194
5.6728,574,1.8516
5.6771,585,1.8871
5.6815,595,1.9194
5.6858,601,1.9387
5.6901,603,1.9452
5.6944,604,1.9484
5.6987,607,1.9581
5.703,611,1.971
5.7073,621,2.0032
5.7116,624,2.0129
5.7159,622,2.0065
5.7202,615,1.9839
5.7246,613,1.9774
5.7288,614,1.9806
5.7331,610,1.9677
5.7374,609,1.9645
5.7422,616,1.9871
5.7465,623,2.0097
5.7508,627,2.0226
5.7551,629,2.029
5.7594,635,2.0484
5.7637,636,2.0516
5.768,634,2.0452
5.7723,628,2.0258
5.7766,623,2.0097
5.7809,610,1.9677
5.7852,595,1.9194
5.7896,576,1.8581
5.7938,560,1.8065
5.7981,544,1.7548
5.8024,529,1.7065
5.8068,515,1.6613
5.8111,502,1.6194
5.8154,490,1.5806
5.8197,478,1.5419
5.8241,471,1.5194
5.8285,468,1.5097
5.8329,465,1.5
5.8373,460,1.4839
5.8417,457,1.4742
5.846,455,1.4677
5.8503,457,1.4742
5.8546,460,1.4839
5.8589,463,1.4935
5.8632,464,1.4968
5.8675,464,1.4968
5.8718,466,1.5032
5.8761,465,1.5
5.8804,466,1.5032
5.8853,466,1.5032
5.89,465,1.5
5.8943,463,1.4935
5.8986,463,1.4935
5.9029,463,1.4935
5.9072,465,1.5
5.9115,465,1.5
5.9158,464,1.4968
5.9201,461,1.4871
5.9244,461,1.4871
5.9287,459,1.4806
5.933,454,1.4645
5.9373,454,1.4645
5.9416,455,1.4677
5.9464,453,1.4613
5.9507,446,1.4387
5.955,437,1.4097
5.9593,432,1.3935
5.9636,433,1.3968
5.9679,434,1.4
5.9722,431,1.3903
5.9765,425,1.371
5.9808,423,1.3645
5.9851,419,1.3516
5.9895,402,1.2968
5.9938,385,1.2419
5.9981,371,1.1968
6.0024,361,1.1645
6.0067,352,1.1355
6.011,344,1.1097
6.0153,337,1.0871
6.0196,330,1.0645
6.0239,325,1.0484
6.0283,321,1.0355
6.0325,317,1.0226
6.0368,317,1.0226
6.0412,319,1.029
6.0455,326,1.0516
6.0498,335,1.0806
6.0541,335,1.0806
6.0584,339,1.0935
6.0627,337,1.0871
6.067,331,1.0677
6.0713,323,1.0419
6.0756,318,1.0258
6.0799,316,1.0194
6.0842,316,1.0194
6.0885,316,1.0194
6.0929,316,1.0194
6.0972,322,1.0387
6.1015,330,1.0645
6.1058,339,1.0935
6.1101,355,1.1452
6.1144,369,1.1903
6.1187,381,1.229
6.123,388,1.2516
6.1273,400,1.2903
6.1316,414,1.3355
6.1359,424,1.3677
6.1402,432,1.3935
6.1445,439,1.4161
6.1488,439,1.4161
6.1531,439,1.4161
6.1574,443,1.429
6.1617,447,1.4419
6.166,454,1.4645
6.1703,456,1.471
6.1746,445,1.4355
6.1789,433,1.3968
6.1832,424,1.3677
6.1877,422,1.3613
6.192,418,1.3484
6.1963,414,1.3355
6.2006,412,1.329
6.2049,410,1.3226
6.2092,407,1.3129
6.2136,407,1.3129
6.2179,407,1.3129
6.2221,409,1.3194
6.2264,415,1.3387
6.2307,417,1.3452
6.2351,416,1.3419
6.2394,415,1.3387
6.2437,418,1.3484
6.2483,435,1.4032
6.2527,449,1.4484
6.257,461,1.4871
6.2613,469,1.5129
6.2656,467,1.5065
6.2699,464,1.4968
6.2742,463,1.4935
6.2785,461,1.4871
6.2828,454,1.4645
6.2872,447,1.4419
6.2915,442,1.4258
6.2958,438,1.4129
6.3001,434,1.4
6.3044,429,1.3839
6.3087,425,1.371
6.313,419,1.3516
6.3174,414,1.3355
6.3217,409,1.3194
6.326,410,1.3226
6.3302,418,1.3484
6.3346,437,1.4097
6.339,458,1.4774
6.3434,476,1.5355
6.3477,488,1.5742
6.352,499,1.6097
6.3563,509,1.6419
6.3606,513,1.6548
6.3649,519,1.6742
6.3692,540,1.7419
6.3735,575,1.8548
6.3778,630,2.0323
6.3821,707,2.2806
6.3864,777,2.5065
6.3907,743,2.3968
6.3955,624,2.0129
6.3998,519,1.6742
6.4041,475,1.5323
6.4084,475,1.5323
6.4127,459,1.4806
6.4171,432,1.3935
6.4214,432,1.3935
6.4258,467,1.5065
6.4304,515,1.6613
6.4348,544,1.7548
6.4391,559,1.8032
6.4438,564,1.8194
6.4481,563,1.8161
6.4527,560,1.8065
6.4571,559,1.8032
6.4614,563,1.8161
6.4657,563,1.8161
6.4699,563,1.8161
6.4742,559,1.8032
6.4786,555,1.7903
6.4829,545,1.7581
6.4872,536,1.729
6.4915,531,1.7129
6.4958,531,1.7129
6.5001,526,1.6968
6.5044,515,1.6613
6.5087,507,1.6355
6.513,504,1.6258
6.5173,505,1.629
6.5216,501,1.6161
6.5259,493,1.5903
6.5303,486,1.5677
6.5346,480,1.5484
6.5389,482,1.5548
6.5432,486,1.5677
6.5475,487,1.571
6.5518,488,1.5742
6.5561,482,1.5548
6.5604,469,1.5129
6.5647,452,1.4581
6.569,436,1.4065
6.5733,422,1.3613
6.5776,410,1.3226
6.5819,404,1.3032
6.5862,400,1.2903
6.5906,400,1.2903
6.595,396,1.2774
6.5993,395,1.2742
6.6036,388,1.2516
6.6079,388,1.2516
6.6122,393,1.2677
6.6165,395,1.2742
6.6208,387,1.2484
6.6251,376,1.2129
6.6294,363,1.171
6.6337,350,1.129
6.638,340,1.0968
6.6423,327,1.0548
6.6467,308,0.9935
6.651,292,0.9419
6.6552,273,0.8806
6.6595,254,0.8194
6.6639,243,0.7839
6.6682,239,0.771
6.6725,230,0.7419
6.6767,219,0.7065
6.6816,211,0.6806
6.6859,208,0.671
6.6901,208,0.671
6.6945,214,0.6903
6.6988,220,0.7097
6.7031,223,0.7194
6.7074,224,0.7226
6.7117,231,0.7452
6.716,241,0.7774
6.7203,248,0.8
6.7247,256,0.8258
6.7292,262,0.8452
6.7336,268,0.8645
6.7379,273,0.8806
6.7431,279,0.9
6.7474,287,0.9258
6.7517,296,0.9548
6.756,307,0.9903
6.7603,304,0.9806
6.7646,299,0.9645
6.7689,299,0.9645
6.7732,299,0.9645
6.7775,300,0.9677
6.7818,304,0.9806
6.7861,309,0.9968
6.7905,315,1.0161
6.7948,320,1.0323
6.7991,328,1.0581
6.8034,340,1.0968
6.8077,351,1.1323
6.812,357,1.1516
6.8163,367,1.1839
6.8206,380,1.2258
6.825,394,1.271
6.8293,411,1.3258
6.8336,420,1.3548
6.8379,430,1.3871
6.8423,438,1.4129
6.8466,448,1.4452
6.8509,460,1.4839
6.8552,468,1.5097
6.8595,470,1.5161
6.8638,477,1.5387
6.8681,482,1.5548
6.8724,477,1.5387
6.8767,480,1.5484
6.881,480,1.5484
6.8853,476,1.5355
6.8896,465,1.5
6.8939,444,1.4323
6.8983,431,1.3903
6.9026,416,1.3419
6.9069,403,1.3
6.9112,388,1.2516
6.9155,377,1.2161
6.9198,369,1.1903
6.9241,369,1.1903
6.9284,364,1.1742
6.9327,363,1.171
6.937,366,1.1806
6.9413,371,1.1968
6.9456,377,1.2161
6.95,379,1.2226
6.9543,376,1.2129
6.9586,373,1.2032
6.9629,371,1.1968
6.9672,369,1.1903
6.9715,368,1.1871
6.9758,368,1.1871
6.9801,366,1.1806
6.9844,361,1.1645
6.9887,361,1.1645
6.993,360,1.1613
6.9975,358,1.1548
7.0018,357,1.1516
7.0061,356,1.1484
7.0104,350,1.129
7.0147,342,1.1032
7.019,337,1.0871
7.0233,334,1.0774
7.0276,335,1.0806
7.0319,337,1.0871
7.0362,338,1.0903
7.0405,339,1.0935
7.0448,343,1.1065
7.0491,348,1.1226
7.0534,357,1.1516
7.0577,362,1.1677
7.062,367,1.1839
7.0663,374,1.2065
7.0706,388,1.2516
7.0749,404,1.3032
7.0792,420,1.3548
7.0835,436,1.4065
7.0877,448,1.4452
7.0921,458,1.4774
7.0964,463,1.4935
7.1007,457,1.4742
7.105,448,1.4452
7.1094,441,1.4226
7.1137,434,1.4
7.118,431,1.3903
7.1224,423,1.3645
7.1267,414,1.3355
7.131,411,1.3258
7.1354,414,1.3355
7.1397,423,1.3645
7.144,431,1.3903
7.1484,430,1.3871
7.1527,423,1.3645
7.1571,421,1.3581
7.1614,416,1.3419
7.1658,410,1.3226
7.1701,406,1.3097
7.1744,405,1.3065
7.1788,403,1.3
7.1831,400,1.2903
7.1874,395,1.2742
7.1918,392,1.2645
7.1961,392,1.2645
7.2004,392,1.2645
7.2047,387,1.2484
7.209,384,1.2387
7.2133,383,1.2355
7.2176,381,1.229
7.2219,383,1.2355
7.2262,402,1.2968
7.2305,444,1.4323
7.2348,496,1.6
7.2391,559,1.8032
7.2434,627,2.0226
7.2477,668,2.1548
7.252,606,1.9548
7.2563,496,1.6
7.2606,411,1.3258
7.2649,388,1.2516
7.2692,387,1.2484
7.2735,363,1.171
7.2778,334,1.0774
7.2821,334,1.0774
7.2864,361,1.1645
7.2906,398,1.2839
7.2951,426,1.3742
7.2994,441,1.4226
7.3038,447,1.4419
7.3081,463,1.4935
7.3124,482,1.5548
7.3168,495,1.5968
7.3211,500,1.6129
7.3255,495,1.5968
7.3299,488,1.5742
7.3344,486,1.5677
7.3388,488,1.5742
7.3431,492,1.5871
7.3474,490,1.5806
7.3518,487,1.571
7.3561,481,1.5516
7.3605,477,1.5387
7.3648,475,1.5323
7.3691,471,1.5194
7.3734,469,1.5129
7.3778,477,1.5387
7.3821,486,1.5677
7.3864,489,1.5774
7.3908,488,1.5742
7.3952,482,1.5548
7.3996,478,1.5419
7.4039,475,1.5323
7.4082,476,1.5355
7.4125,480,1.5484
7.4168,484,1.5613
7.4211,489,1.5774
7.4254,492,1.5871
7.4297,494,1.5935
7.4343,499,1.6097
7.4386,502,1.6194
7.443,503,1.6226
7.4473,506,1.6323
7.4516,515,1.6613
7.4559,524,1.6903
7.4602,536,1.729
7.4645,541,1.7452
7.4688,538,1.7355
7.4731,528,1.7032
7.4774,522,1.6839
7.4817,514,1.6581
7.486,504,1.6258
7.4903,499,1.6097
7.4946,493,1.5903
7.4989,483,1.5581
7.5032,472,1.5226
7.5075,457,1.4742
7.5118,441,1.4226
7.5161,425,1.371
7.5204,412,1.329
7.5247,401,1.2935
7.529,390,1.2581
7.5333,381,1.229
7.5376,372,1.2
7.5419,365,1.1774
7.5462,359,1.1581
7.5505,356,1.1484
7.5548,355,1.1452
7.5591,356,1.1484
7.5634,356,1.1484
7.5677,356,1.1484
7.572,358,1.1548
7.5763,361,1.1645
7.5805,363,1.171
7.5849,364,1.1742
7.5891,364,1.1742
7.5934,367,1.1839
7.5977,369,1.1903
7.602,371,1.1968
7.6064,373,1.2032
7.6107,376,1.2129
7.6151,377,1.2161
7.6194,380,1.2258
7.6238,386,1.2452
7.6282,392,1.2645
7.6326,400,1.2903
7.6371,411,1.3258
7.6415,419,1.3516
7.6459,423,1.3645
7.6503,424,1.3677
7.6546,424,1.3677
7.659,425,1.371
7.6633,434,1.4
7.6677,446,1.4387
7.672,456,1.471
7.6763,459,1.4806
7.6807,459,1.4806
7.685,456,1.471
7.6894,453,1.4613
7.6937,451,1.4548
7.698,453,1.4613
7.7027,451,1.4548
7.7071,448,1.4452
7.7114,447,1.4419
7.7157,446,1.4387
7.72,445,1.4355
7.7243,443,1.429
7.7287,439,1.4161
7.7329,437,1.4097
7.7372,436,1.4065
7.7415,436,1.4065
7.7458,434,1.4
7.7506,432,1.3935
7.7549,433,1.3968
7.7592,434,1.4
7.7635,436,1.4065
7.7678,439,1.4161
7.7721,442,1.4258
7.7764,447,1.4419
7.7807,452,1.4581
7.785,455,1.4677
7.7894,459,1.4806
7.7937,461,1.4871
7.798,460,1.4839
7.8023,460,1.4839
7.8066,460,1.4839
7.811,460,1.4839
7.8153,460,1.4839
7.8196,460,1.4839
7.8238,467,1.5065
7.8281,480,1.5484
7.8325,489,1.5774
7.8368,496,1.6
7.8411,497,1.6032
7.8453,496,1.6
7.8496,495,1.5968
7.854,495,1.5968
7.8583,494,1.5935
7.8626,494,1.5935
7.8669,494,1.5935
7.8712,489,1.5774
7.8755,486,1.5677
7.8798,490,1.5806
7.8841,502,1.6194
7.8884,508,1.6387
7.8927,511,1.6484
7.8971,512,1.6516
7.902,510,1.6452
7.9063,506,1.6323
7.9106,499,1.6097
7.915,489,1.5774
7.9193,480,1.5484
7.9236,475,1.5323
7.9284,473,1.5258
7.9328,473,1.5258
7.9371,469,1.5129
7.9414,462,1.4903
7.9457,455,1.4677
7.95,454,1.4645
7.9543,455,1.4677
7.9586,456,1.471
7.9629,453,1.4613
7.9672,451,1.4548
7.9715,446,1.4387
7.9759,436,1.4065
7.9802,426,1.3742
7.9844,420,1.3548
7.9887,411,1.3258
7.9931,402,1.2968
7.9974,395,1.2742
8.0017,389,1.2548
8.006,384,1.2387
8.0104,379,1.2226
8.0147,379,1.2226
8.019,387,1.2484
8.0233,406,1.3097
8.0276,419,1.3516
8.0319,425,1.371
8.0362,420,1.3548
8.0405,418,1.3484
8.0448,421,1.3581
8.0491,432,1.3935
8.0534,441,1.4226
8.0578,444,1.4323
8.0621,439,1.4161
8.0663,434,1.4
8.0706,447,1.4419
8.0755,483,1.5581
8.0798,531,1.7129
8.0841,593,1.9129
8.0883,648,2.0903
8.0926,640,2.0645
8.097,541,1.7452
8.1013,441,1.4226
8.1056,396,1.2774
8.1099,393,1.2677
8.1142,385,1.2419
8.1186,349,1.1258
8.1229,320,1.0323
8.1272,321,1.0355
8.1314,352,1.1355
8.1357,388,1.2516
8.1401,414,1.3355
8.1444,429,1.3839
8.1487,429,1.3839
8.153,418,1.3484
8.1573,402,1.2968
8.1616,389,1.2548
8.1659,379,1.2226
8.1702,372,1.2
8.1745,371,1.1968
8.1788,382,1.2323
8.1832,409,1.3194
8.1874,434,1.4
8.1917,445,1.4355
8.196,455,1.4677
8.2004,463,1.4935
8.2047,473,1.5258
8.209,485,1.5645
8.2133,488,1.5742
8.2176,482,1.5548
8.2219,478,1.5419
8.2263,475,1.5323
8.2308,473,1.5258
8.2352,478,1.5419
8.2395,481,1.5516
8.2438,482,1.5548
8.2481,481,1.5516
8.2524,479,1.5452
8.2567,478,1.5419
8.2611,478,1.5419
8.2654,483,1.5581
8.2697,491,1.5839
8.2739,497,1.6032
8.2783,508,1.6387
8.2826,516,1.6645
8.287,522,1.6839
8.2913,526,1.6968
8.2961,532,1.7161
8.3004,537,1.7323
8.3049,528,1.7032
8.3092,518,1.671
8.3135,509,1.6419
8.3178,501,1.6161
8.3222,496,1.6
8.3265,490,1.5806
8.3308,483,1.5581
8.3351,475,1.5323
8.3394,463,1.4935
8.3437,448,1.4452
8.348,435,1.4032
8.3523,420,1.3548
8.3566,407,1.3129
8.3614,399,1.2871
8.3657,391,1.2613
8.37,382,1.2323
8.3743,376,1.2129
8.3786,377,1.2161
8.3829,382,1.2323
8.3872,383,1.2355
8.3915,383,1.2355
8.3958,386,1.2452
8.4001,390,1.2581
8.4045,397,1.2806
8.4088,404,1.3032
8.4131,411,1.3258
8.4174,415,1.3387
8.4217,423,1.3645
8.4261,423,1.3645
8.4304,423,1.3645
8.4347,422,1.3613
8.439,422,1.3613
8.4433,422,1.3613
8.4476,422,1.3613
8.4519,435,1.4032
8.4562,454,1.4645
8.4605,466,1.5032
8.4648,480,1.5484
8.4691,486,1.5677
8.4734,489,1.5774
8.4777,483,1.5581
8.482,473,1.5258
8.4863,469,1.5129
8.4906,468,1.5097
8.4949,472,1.5226
8.4992,480,1.5484
8.5035,483,1.5581
8.5079,484,1.5613
8.5122,482,1.5548
8.5165,484,1.5613
8.5208,494,1.5935
8.5252,503,1.6226
8.5297,503,1.6226
8.5341,495,1.5968
8.5384,483,1.5581
8.5427,474,1.529
8.5471,472,1.5226
8.5514,474,1.529
8.5557,479,1.5452
8.56,484,1.5613
8.5644,488,1.5742
8.5687,493,1.5903
8.573,499,1.6097
8.5773,503,1.6226
8.5821,499,1.6097
8.5864,494,1.5935
8.5907,489,1.5774
8.595,486,1.5677
8.5993,485,1.5645
8.6036,486,1.5677
8.608,486,1.5677
8.6123,486,1.5677
8.6166,487,1.571
8.6209,488,1.5742
8.6252,490,1.5806
8.6295,491,1.5839
8.6338,493,1.5903
8.6381,500,1.6129
8.6424,511,1.6484
8.6467,511,1.6484
8.651,514,1.6581
8.6553,514,1.6581
8.6596,517,1.6677
8.6639,523,1.6871
8.6682,527,1.7
8.6725,535,1.7258
8.6768,537,1.7323
8.6811,540,1.7419
8.6854,542,1.7484
8.6898,542,1.7484
8.6941,534,1.7226
8.6983,524,1.6903
8.7026,515,1.6613
8.707,509,1.6419
8.7117,504,1.6258
8.7161,504,1.6258
8.7204,511,1.6484
8.7249,517,1.6677
8.7293,517,1.6677
8.7336,518,1.671
8.7378,519,1.6742
8.7421,527,1.7
8.7464,538,1.7355
8.7508,548,1.7677
8.7551,550,1.7742
8.7594,552,1.7806
8.7637,553,1.7839
8.768,556,1.7935
8.7723,559,1.8032
8.7766,555,1.7903
8.7809,547,1.7645
8.7852,537,1.7323
8.7895,532,1.7161
8.7938,527,1.7
8.7981,525,1.6935
8.8024,524,1.6903
8.8067,523,1.6871
8.811,522,1.6839
8.8154,516,1.6645
8.8197,514,1.6581
8.824,515,1.6613
8.8283,514,1.6581
8.8327,514,1.6581
8.8371,513,1.6548
8.8413,515,1.6613
8.8456,515,1.6613
8.8499,514,1.6581
8.8542,517,1.6677
8.8585,524,1.6903
8.8628,526,1.6968
8.8671,529,1.7065
8.8713,531,1.7129
8.8756,525,1.6935
8.8799,515,1.6613
8.8842,507,1.6355
8.8885,518,1.671
8.8927,544,1.7548
8.897,584,1.8839
8.9013,645,2.0806
8.9056,712,2.2968
8.9098,735,2.371
8.9141,647,2.0871
8.9184,538,1.7355
8.9227,477,1.5387
8.927,478,1.5419
8.9313,488,1.5742
8.9356,467,1.5065
8.9398,449,1.4484
8.9441,456,1.471
8.9484,488,1.5742
8.9526,522,1.6839
8.957,543,1.7516
8.9613,549,1.771
8.9656,545,1.7581
8.9699,544,1.7548
8.9742,553,1.7839
8.9784,569,1.8355
8.9827,580,1.871
8.987,587,1.8935
8.9913,591,1.9065
8.9956,592,1.9097
8.9998,594,1.9161
9.0041,593,1.9129
9.0084,594,1.9161
9.0127,597,1.9258
9.017,602,1.9419
9.0213,609,1.9645
9.0256,611,1.971
9.0298,613,1.9774
9.0341,612,1.9742
9.0384,609,1.9645
9.0427,613,1.9774
9.0469,614,1.9806
9.0513,615,1.9839
9.0556,613,1.9774
9.06,610,1.9677
9.0643,603,1.9452
9.0686,595,1.9194
9.0729,590,1.9032
9.0772,588,1.8968
9.0814,591,1.9065
9.0857,591,1.9065
9.09,589,1.9
9.0943,590,1.9032
9.0985,593,1.9129
9.1028,590,1.9032
9.1071,588,1.8968
9.1114,590,1.9032
9.1157,592,1.9097
9.12,590,1.9032
9.1243,586,1.8903
9.1287,580,1.871
9.1333,574,1.8516
9.1376,573,1.8484
9.1419,570,1.8387
9.1462,567,1.829
9.1504,561,1.8097
9.1547,551,1.7774
9.159,540,1.7419
9.1633,524,1.6903
9.1676,499,1.6097
9.1719,474,1.529
9.1761,455,1.4677
9.1804,446,1.4387
9.1847,431,1.3903
9.189,417,1.3452
9.1933,403,1.3
9.1976,393,1.2677
9.2019,386,1.2452
9.2061,386,1.2452
9.2105,390,1.2581
9.215,393,1.2677
9.2193,399,1.2871
9.2235,417,1.3452
9.2278,428,1.3806
9.232,423,1.3645
9.2363,397,1.2806
9.2406,371,1.1968
9.2449,358,1.1548
9.2492,353,1.1387
9.2534,356,1.1484
9.2577,359,1.1581
9.262,354,1.1419
9.2663,352,1.1355
9.2706,354,1.1419
9.2748,358,1.1548
9.2791,359,1.1581
9.2834,358,1.1548
9.2876,358,1.1548
9.2919,358,1.1548
9.2962,364,1.1742
9.301,371,1.1968
9.3053,380,1.2258
9.3096,396,1.2774
9.3139,403,1.3
9.3181,393,1.2677
9.3224,374,1.2065
9.3267,356,1.1484
9.331,347,1.1194
9.3352,347,1.1194
9.3395,351,1.1323
9.3438,354,1.1419
9.348,359,1.1581
9.3523,365,1.1774
9.3566,367,1.1839
9.3609,369,1.1903
9.3652,373,1.2032
9.3694,374,1.2065
9.3737,375,1.2097
9.378,372,1.2
9.3823,369,1.1903
9.3866,370,1.1935
9.3908,370,1.1935
9.3951,371,1.1968
9.3994,371,1.1968
9.4037,367,1.1839
9.4079,367,1.1839
9.4122,368,1.1871
9.4165,366,1.1806
9.4208,366,1.1806
9.4252,363,1.171
9.4319,353,1.1387
9.4363,352,1.1355
9.4406,349,1.1258
9.4449,348,1.1226
9.4492,347,1.1194
9.4535,345,1.1129
9.4578,346,1.1161
9.4621,346,1.1161
9.4663,347,1.1194
9.4707,344,1.1097
9.4749,344,1.1097
9.4792,344,1.1097
9.4835,344,1.1097
9.4878,345,1.1129
9.492,345,1.1129
9.4964,345,1.1129
9.5007,338,1.0903
9.5049,327,1.0548
9.5092,316,1.0194
9.5135,310,1
9.5178,304,0.9806
9.5221,304,0.9806
9.5263,304,0.9806
9.5306,303,0.9774
9.5348,304,0.9806
9.5391,304,0.9806
9.5433,302,0.9742
9.5476,303,0.9774
9.5518,306,0.9871
9.5561,310,1
9.5603,315,1.0161
9.5646,320,1.0323
9.5689,322,1.0387
9.5731,326,1.0516
9.5774,325,1.0484
9.5816,325,1.0484
9.5858,323,1.0419
9.5901,314,1.0129
9.5943,309,0.9968
9.5986,313,1.0097
9.6029,315,1.0161
9.6071,312,1.0065
9.6114,298,0.9613
9.6157,281,0.9065
9.6199,270,0.871
9.6242,268,0.8645
9.6285,271,0.8742
9.6328,276,0.8903
9.6371,282,0.9097
9.6414,285,0.9194
9.6457,284,0.9161
9.65,283,0.9129
9.6543,283,0.9129
9.6585,287,0.9258
9.6628,293,0.9452
9.6671,296,0.9548
9.6714,299,0.9645
9.6757,300,0.9677
9.68,300,0.9677
9.6842,302,0.9742
9.6885,301,0.971
9.6928,299,0.9645
9.6971,304,0.9806
9.7014,320,1.0323
9.7057,345,1.1129
9.71,384,1.2387
9.7143,448,1.4452
9.7186,520,1.6774
9.7229,547,1.7645
9.7271,465,1.5
9.7314,349,1.1258
9.7357,273,0.8806
9.74,263,0.8484
9.7443,275,0.8871
9.7485,262,0.8452
9.7528,244,0.7871
9.7571,247,0.7968
9.7614,275,0.8871
9.7657,313,1.0097
9.77,334,1.0774
9.7743,342,1.1032
9.7785,343,1.1065
9.7829,341,1.1
9.7871,341,1.1
9.7914,344,1.1097
9.7957,348,1.1226
9.8,350,1.129
9.8043,347,1.1194
9.8085,345,1.1129
9.8128,343,1.1065
9.8171,341,1.1
9.8214,344,1.1097
9.8257,346,1.1161
9.83,348,1.1226
9.8342,349,1.1258
9.8385,350,1.129
9.8428,348,1.1226
9.8471,352,1.1355
9.8514,356,1.1484
9.8557,359,1.1581
9.86,362,1.1677
9.8643,360,1.1613
9.8685,360,1.1613
9.8729,357,1.1516
9.8771,357,1.1516
9.8814,358,1.1548
9.8857,358,1.1548
9.8899,362,1.1677
9.8942,365,1.1774
9.8985,367,1.1839
9.9028,382,1.2323
9.9071,388,1.2516
9.9114,392,1.2645
9.9157,397,1.2806
9.92,397,1.2806
9.9242,398,1.2839
9.9285,398,1.2839
9.9328,400,1.2903
9.9371,395,1.2742
9.9414,391,1.2613
9.9457,389,1.2548
9.95,383,1.2355
9.9542,370,1.1935
9.9585,354,1.1419
9.9628,346,1.1161
9.9671,354,1.1419
9.9714,364,1.1742
9.9757,375,1.2097
9.98,382,1.2323
9.9843,383,1.2355
9.9885,382,1.2323
9.9929,375,1.2097
9.9971,367,1.1839
10.0014,367,1.1839
10.0062,368,1.1871
10.0106,356,1.1484
10.0185,346,1.1161
10.023,343,1.1065
10.0279,332,1.071
10.0335,317,1.0226
10.038,309,0.9968
10.0424,312,1.0065
10.0467,313,1.0097
10.0509,301,0.971
10.0552,294,0.9484
10.0595,295,0.9516
10.0637,299,0.9645
10.068,301,0.971
10.0723,296,0.9548
10.0766,287,0.9258
10.0808,287,0.9258
10.0851,292,0.9419
10.0893,294,0.9484
10.0936,290,0.9355
10.0979,288,0.929
10.1021,287,0.9258
10.1064,286,0.9226
10.1107,293,0.9452
10.1149,300,0.9677
10.1192,304,0.9806
10.1235,297,0.9581
10.1277,288,0.929
10.132,281,0.9065
10.1362,282,0.9097
10.1406,287,0.9258
10.1448,293,0.9452
10.149,299,0.9645
10.1532,303,0.9774
10.1575,300,0.9677
10.1617,295,0.9516
10.166,294,0.9484
10.1702,296,0.9548
10.1744,295,0.9516
10.1787,292,0.9419
10.1829,290,0.9355
10.1872,293,0.9452
10.1914,296,0.9548
10.1956,299,0.9645
10.1999,302,0.9742
10.2041,303,0.9774
10.2084,303,0.9774
10.2126,299,0.9645
10.2169,299,0.9645
10.2211,301,0.971
10.2255,302,0.9742
10.2298,296,0.9548
10.2341,289,0.9323
10.2384,289,0.9323
10.2427,294,0.9484
10.247,302,0.9742
10.2512,307,0.9903
10.2555,309,0.9968
10.2599,310,1
10.2641,307,0.9903
10.2684,300,0.9677
10.2728,299,0.9645
10.2771,303,0.9774
10.2813,308,0.9935
10.2856,313,1.0097
10.2899,311,1.0032
10.2942,309,0.9968
10.2985,310,1
10.3028,313,1.0097
10.3072,317,1.0226
10.3114,318,1.0258
10.3157,318,1.0258
10.3201,320,1.0323
10.3244,326,1.0516
10.3288,335,1.0806
10.3332,338,1.0903
10.3376,340,1.0968
10.3419,341,1.1
10.3462,340,1.0968
10.3505,341,1.1
10.3548,349,1.1258
10.3591,357,1.1516
10.3634,363,1.171
10.3677,371,1.1968
10.372,377,1.2161
10.3763,376,1.2129
10.3806,382,1.2323
10.3849,391,1.2613
10.3892,396,1.2774
10.3935,394,1.271
10.3978,392,1.2645
10.4021,394,1.271
10.4064,401,1.2935
10.4107,410,1.3226
10.415,417,1.3452
10.4193,423,1.3645
10.4236,428,1.3806
10.4279,426,1.3742
10.4322,423,1.3645
10.4364,420,1.3548
10.4407,422,1.3613
10.4449,422,1.3613
10.4492,423,1.3645
10.4535,429,1.3839
10.4577,435,1.4032
10.462,435,1.4032
10.4662,433,1.3968
10.4705,437,1.4097
10.4748,436,1.4065
10.479,437,1.4097
10.4833,441,1.4226
10.4876,441,1.4226
10.4918,442,1.4258
10.4961,442,1.4258
10.5003,439,1.4161
10.5046,441,1.4226
10.5089,456,1.471
10.5131,480,1.5484
10.5174,520,1.6774
10.5218,586,1.8903
10.5261,659,2.1258
10.5304,667,2.1516
10.5347,572,1.8452
10.5389,463,1.4935
10.5433,405,1.3065
10.5476,405,1.3065
10.5518,407,1.3129
10.5561,384,1.2387
10.5604,360,1.1613
10.5647,363,1.171
10.569,396,1.2774
10.5733,438,1.4129
10.5776,465,1.5
10.5819,478,1.5419
10.5862,481,1.5516
10.5905,479,1.5452
10.5948,482,1.5548
10.5991,483,1.5581
10.6034,483,1.5581
10.6077,476,1.5355
10.612,476,1.5355
10.6163,484,1.5613
10.6205,490,1.5806
10.6248,490,1.5806
10.6291,488,1.5742
10.6334,490,1.5806
10.6377,492,1.5871
10.642,491,1.5839
10.6463,484,1.5613
10.6506,482,1.5548
10.6548,487,1.571
10.6591,489,1.5774
10.6634,488,1.5742
10.6677,486,1.5677
10.672,485,1.5645
10.6763,487,1.571
10.6805,491,1.5839
10.6848,497,1.6032
10.6892,498,1.6065
10.6934,498,1.6065
10.6977,499,1.6097
10.702,497,1.6032
10.7063,494,1.5935
10.7106,493,1.5903
10.7149,497,1.6032
10.7192,501,1.6161
10.7236,504,1.6258
10.7278,505,1.629
10.7321,508,1.6387
10.7364,508,1.6387
10.7407,510,1.6452
10.745,512,1.6516
10.7492,514,1.6581
10.7536,515,1.6613
10.7578,512,1.6516
10.7621,507,1.6355
10.7664,497,1.6032
10.7707,490,1.5806
10.775,481,1.5516
10.7793,470,1.5161
10.7836,460,1.4839
10.7879,447,1.4419
10.7922,437,1.4097
10.7965,424,1.3677
10.8008,408,1.3161
10.8051,395,1.2742
10.8094,381,1.229
10.8137,367,1.1839
10.818,360,1.1613
10.8223,353,1.1387
10.8266,349,1.1258
10.8309,350,1.129
10.8352,348,1.1226
10.8395,345,1.1129
10.8438,344,1.1097
10.8481,344,1.1097
10.8524,345,1.1129
10.8567,351,1.1323
10.861,356,1.1484
10.8652,361,1.1645
10.8695,365,1.1774
10.8739,368,1.1871
10.8781,373,1.2032
10.8824,378,1.2194
10.8867,385,1.2419
10.891,392,1.2645
10.8953,397,1.2806
10.8996,403,1.3
10.9039,406,1.3097
10.9082,408,1.3161
10.9125,406,1.3097
10.9168,408,1.3161
10.9211,415,1.3387
10.9254,419,1.3516
10.9298,419,1.3516
10.9344,416,1.3419
10.9388,412,1.329
10.9431,409,1.3194
10.9474,409,1.3194
10.9517,407,1.3129
10.956,404,1.3032
10.9603,400,1.2903
10.9647,399,1.2871
10.9689,396,1.2774
10.9732,394,1.271
10.9775,395,1.2742
10.9818,393,1.2677
10.9861,397,1.2806
10.9904,403,1.3
10.9947,398,1.2839
10.999,394,1.271
11.0033,387,1.2484
11.0076,384,1.2387
11.0119,383,1.2355
11.0162,378,1.2194
11.0205,371,1.1968
11.0248,368,1.1871
11.0291,368,1.1871
11.0333,373,1.2032
11.0376,378,1.2194
11.0419,383,1.2355
11.0461,386,1.2452
11.0504,387,1.2484
11.0547,389,1.2548
11.0589,389,1.2548
11.0632,391,1.2613
11.0675,390,1.2581
11.0717,390,1.2581
11.076,390,1.2581
11.0802,393,1.2677
11.0845,392,1.2645
11.0888,392,1.2645
11.093,385,1.2419
11.0973,381,1.229
11.1054,386,1.2452
11.1098,394,1.271
11.114,401,1.2935
11.1183,405,1.3065
11.1226,410,1.3226
11.127,418,1.3484
11.1312,429,1.3839
11.1355,435,1.4032
11.1398,434,1.4
11.1442,433,1.3968
11.1484,434,1.4
11.1527,436,1.4065
11.157,439,1.4161
11.1613,438,1.4129
11.1656,429,1.3839
11.1699,420,1.3548
11.1742,413,1.3323
11.1785,409,1.3194
11.1828,403,1.3
11.1871,401,1.2935
11.1914,401,1.2935
11.1957,404,1.3032
11.2,406,1.3097
11.2043,405,1.3065
11.2086,405,1.3065
11.2129,407,1.3129
11.2172,406,1.3097
11.2215,405,1.3065
11.2259,405,1.3065
11.2303,408,1.3161
11.2349,416,1.3419
11.2392,421,1.3581
11.2435,419,1.3516
11.2477,415,1.3387
11.252,411,1.3258
11.2563,414,1.3355
11.2605,421,1.3581
11.2648,425,1.371
11.2691,427,1.3774
11.2733,436,1.4065
11.2776,456,1.471
11.2818,490,1.5806
11.2861,542,1.7484
11.2904,609,1.9645
11.2946,654,2.1097
11.2989,598,1.929
11.3031,494,1.5935
11.3074,417,1.3452
11.3117,403,1.3
11.3159,414,1.3355
11.3202,399,1.2871
11.3245,376,1.2129
11.3288,363,1.171
11.3331,382,1.2323
11.3375,428,1.3806
11.342,461,1.4871
11.3463,483,1.5581
11.3506,487,1.571
11.3549,488,1.5742
11.3592,490,1.5806
11.3635,490,1.5806
11.3678,491,1.5839
11.3721,488,1.5742
11.3764,485,1.5645
11.3807,486,1.5677
11.385,485,1.5645
11.3893,487,1.571
11.3936,490,1.5806
11.3979,500,1.6129
11.4022,505,1.629
11.4064,504,1.6258
11.4107,502,1.6194
11.415,501,1.6161
11.4193,502,1.6194
11.4236,504,1.6258
11.4279,508,1.6387
11.4322,518,1.671
11.4365,526,1.6968
11.4407,534,1.7226
11.445,537,1.7323
11.4493,538,1.7355
11.4536,540,1.7419
11.4578,540,1.7419
11.4621,544,1.7548
11.4663,552,1.7806
11.4706,564,1.8194
11.4749,566,1.8258
11.4791,569,1.8355
11.4834,576,1.8581
11.4877,580,1.871
11.4919,586,1.8903
11.4962,586,1.8903
11.5004,585,1.8871
11.5047,584,1.8839
11.509,583,1.8806
11.5132,584,1.8839
11.5175,582,1.8774
11.5217,581,1.8742
11.526,578,1.8645
11.5304,569,1.8355
11.5346,560,1.8065
11.5389,552,1.7806
11.5432,539,1.7387
11.5475,530,1.7097
11.5518,511,1.6484
11.5561,494,1.5935
11.5604,485,1.5645
11.5647,478,1.5419
11.569,464,1.4968
11.5734,455,1.4677
11.5777,447,1.4419
11.582,437,1.4097
11.5862,428,1.3806
11.5905,424,1.3677
11.5949,424,1.3677
11.5992,426,1.3742
11.6035,429,1.3839
11.6078,437,1.4097
11.6121,440,1.4194
11.6164,441,1.4226
11.6207,441,1.4226
11.625,438,1.4129
11.6293,434,1.4
11.6336,438,1.4129
11.6379,443,1.429
11.6422,444,1.4323
11.6464,447,1.4419
11.6507,454,1.4645
11.655,458,1.4774
11.6593,459,1.4806
11.6636,456,1.471
11.6679,453,1.4613
11.6722,456,1.471
11.6765,462,1.4903
11.6808,464,1.4968
11.6851,462,1.4903
11.6894,463,1.4935
11.6937,460,1.4839
11.698,457,1.4742
11.7023,458,1.4774
11.7066,458,1.4774
11.7109,457,1.4742
11.7152,461,1.4871
11.7195,464,1.4968
11.7237,469,1.5129
11.728,467,1.5065
11.7324,470,1.5161
11.7367,474,1.529
11.741,470,1.5161
11.7453,467,1.5065
11.7495,462,1.4903
11.7539,460,1.4839
11.7582,468,1.5097
11.7624,471,1.5194
11.7668,472,1.5226
11.771,471,1.5194
11.7753,467,1.5065
11.7796,464,1.4968
11.7839,467,1.5065
11.7882,472,1.5226
11.7925,473,1.5258
11.7968,472,1.5226
11.8011,472,1.5226
11.8054,474,1.529
11.8097,474,1.529
11.814,473,1.5258
11.8183,475,1.5323
11.8226,481,1.5516
11.827,484,1.5613
11.8316,483,1.5581
11.836,479,1.5452
11.8403,475,1.5323
11.8446,475,1.5323
11.8489,478,1.5419
11.8531,479,1.5452
11.8574,477,1.5387
11.8617,473,1.5258
11.8659,470,1.5161
11.8702,466,1.5032
11.8744,463,1.4935
11.8787,464,1.4968
11.883,463,1.4935
11.8872,468,1.5097
11.8915,468,1.5097
11.8957,467,1.5065
11.9,470,1.5161
11.9044,473,1.5258
11.9086,476,1.5355
11.9129,483,1.5581
11.9171,489,1.5774
11.9214,490,1.5806
11.9257,491,1.5839
11.9299,498,1.6065
11.9343,506,1.6323
11.9386,510,1.6452
11.9429,510,1.6452
11.9471,508,1.6387
11.9515,505,1.629
11.9557,505,1.629
11.96,506,1.6323
11.9644,505,1.629
11.9688,502,1.6194
11.973,496,1.6
11.9773,492,1.5871
11.9816,485,1.5645
11.9867,476,1.5355
11.991,475,1.5323
11.9953,479,1.5452
11.9996,481,1.5516
12.0039,478,1.5419
12.0083,467,1.5065
12.0126,463,1.4935
12.0168,460,1.4839
12.0211,462,1.4903
12.0254,463,1.4935
12.0297,458,1.4774
12.034,455,1.4677
12.0383,458,1.4774
12.0426,461,1.4871
12.0469,469,1.5129
12.0512,474,1.529
12.0555,495,1.5968
12.0597,529,1.7065
12.064,575,1.8548
12.0682,639,2.0613
12.0725,712,2.2968
12.0768,738,2.3806
12.0811,658,2.1226
12.0853,547,1.7645
12.0896,480,1.5484
12.0939,476,1.5355
12.0982,482,1.5548
12.1024,462,1.4903
12.1067,441,1.4226
12.111,435,1.4032
12.1153,460,1.4839
12.1195,494,1.5935
12.1238,514,1.6581
12.1281,524,1.6903
12.1325,525,1.6935
12.1375,522,1.6839
12.1419,523,1.6871
12.1463,526,1.6968
12.1505,528,1.7032
12.1548,538,1.7355
12.1591,544,1.7548
12.1634,548,1.7677
12.1679,551,1.7774
12.1722,555,1.7903
12.1764,554,1.7871
12.1807,555,1.7903
12.185,556,1.7935
12.1892,556,1.7935
12.1935,558,1.8
12.1978,561,1.8097
12.2021,564,1.8194
12.2064,566,1.8258
12.2107,566,1.8258
12.215,568,1.8323
12.2192,571,1.8419
12.2235,573,1.8484
12.2278,575,1.8548
12.2321,583,1.8806
12.2364,590,1.9032
12.2406,590,1.9032
12.2449,583,1.8806
12.2492,577,1.8613
12.2541,581,1.8742
12.2584,593,1.9129
12.2627,600,1.9355
12.267,607,1.9581
12.2712,613,1.9774
12.2755,619,1.9968
12.2798,628,2.0258
12.2841,636,2.0516
12.2888,631,2.0355
12.2931,624,2.0129
12.2974,618,1.9935
12.3017,616,1.9871
12.306,615,1.9839
12.3103,615,1.9839
12.3145,612,1.9742
12.3188,610,1.9677
12.3231,605,1.9516
12.3274,597,1.9258
12.332,585,1.8871
12.3363,576,1.8581
12.3406,563,1.8161
12.3449,550,1.7742
12.3491,536,1.729
12.3534,522,1.6839
12.3577,507,1.6355
12.362,492,1.5871
12.3663,484,1.5613
12.3705,482,1.5548
12.3748,482,1.5548
12.3791,479,1.5452
12.3833,478,1.5419
12.3876,479,1.5452
12.3918,482,1.5548
12.3961,489,1.5774
12.4004,493,1.5903
12.4047,490,1.5806
12.409,487,1.571
12.4132,484,1.5613
12.4175,484,1.5613
12.4218,488,1.5742
12.4261,491,1.5839
12.4303,494,1.5935
12.4346,501,1.6161
12.4389,502,1.6194
12.4432,506,1.6323
12.4475,507,1.6355
12.4517,510,1.6452
12.456,511,1.6484
12.4603,509,1.6419
12.4645,509,1.6419
12.4688,511,1.6484
12.473,511,1.6484
12.4773,508,1.6387
12.4816,509,1.6419
12.4858,513,1.6548
12.4903,511,1.6484
12.4946,514,1.6581
12.4989,518,1.671
12.5032,518,1.671
12.5074,521,1.6806
12.5117,519,1.6742
12.5161,521,1.6806
12.5204,523,1.6871
12.5247,523,1.6871
12.529,521,1.6806
12.5332,522,1.6839
12.5374,525,1.6935
12.5418,525,1.6935
12.5461,526,1.6968
12.5503,529,1.7065
12.5546,530,1.7097
12.5588,529,1.7065
12.5631,525,1.6935
12.5674,524,1.6903
12.5716,520,1.6774
12.5759,517,1.6677
12.5801,515,1.6613
12.5844,517,1.6677
12.5887,516,1.6645
12.5929,519,1.6742
12.5977,524,1.6903
12.602,532,1.7161
12.6063,537,1.7323
12.6105,538,1.7355
12.6148,538,1.7355
12.619,536,1.729
12.6233,540,1.7419
12.6276,542,1.7484
12.6319,542,1.7484
12.6361,545,1.7581
12.6404,547,1.7645
12.6447,543,1.7516
12.649,542,1.7484
12.6533,539,1.7387
12.6575,529,1.7065
12.6618,521,1.6806
12.6661,519,1.6742
12.6703,526,1.6968
12.6746,531,1.7129
12.6792,535,1.7258
12.6836,539,1.7387
12.6878,542,1.7484
12.6921,541,1.7452
12.6964,539,1.7387
12.7006,535,1.7258
12.7049,531,1.7129
12.7092,529,1.7065
12.7135,530,1.7097
12.7177,534,1.7226
12.722,538,1.7355
12.7263,539,1.7387
12.7307,541,1.7452
12.7351,545,1.7581
12.7394,549,1.771
12.7437,548,1.7677
12.748,544,1.7548
12.7523,534,1.7226
12.7565,525,1.6935
12.7611,523,1.6871
12.7654,522,1.6839
12.7697,521,1.6806
12.774,521,1.6806
12.7782,518,1.671
12.7825,516,1.6645
12.7868,511,1.6484
12.7911,508,1.6387
12.7953,507,1.6355
12.7996,508,1.6387
12.8039,506,1.6323
12.8082,507,1.6355
12.8125,508,1.6387
12.8167,508,1.6387
12.821,509,1.6419
12.8253,509,1.6419
12.8296,510,1.6452
12.8338,511,1.6484
12.838,513,1.6548
12.8429,513,1.6548
12.8472,511,1.6484
12.8515,506,1.6323
12.8558,502,1.6194
12.86,508,1.6387
12.8643,536,1.729
12.8689,586,1.8903
12.8732,650,2.0968
12.8774,716,2.3097
12.8817,726,2.3419
12.8859,637,2.0548
12.8902,528,1.7032
12.8945,466,1.5032
12.8987,462,1.4903
12.903,465,1.5
12.9073,445,1.4355
12.9115,427,1.3774
12.9158,437,1.4097
12.92,469,1.5129
12.9243,507,1.6355
12.9286,536,1.729
12.9329,544,1.7548
12.9372,549,1.771
12.9415,547,1.7645
12.9458,544,1.7548
12.9501,546,1.7613
12.9545,550,1.7742
12.9587,549,1.771
12.963,545,1.7581
12.9674,544,1.7548
12.9717,544,1.7548
12.976,552,1.7806
12.9803,558,1.8
12.9846,565,1.8226
12.9889,570,1.8387
12.9933,573,1.8484
12.9981,575,1.8548
13.0024,582,1.8774
13.0068,592,1.9097
13.0112,592,1.9097
13.0155,592,1.9097
13.0198,593,1.9129
13.0242,590,1.9032
13.0285,589,1.9
13.0329,596,1.9226
13.0373,602,1.9419
13.0416,609,1.9645
13.0459,609,1.9645
13.0503,608,1.9613
13.0545,608,1.9613
13.0588,611,1.971
13.0631,613,1.9774
13.0673,614,1.9806
13.0716,613,1.9774
13.0759,614,1.9806
13.0802,621,2.0032
13.0845,625,2.0161
13.0889,628,2.0258
13.0932,628,2.0258
13.0975,629,2.029
13.1018,629,2.029
13.106,625,2.0161
13.1103,622,2.0065
13.1146,622,2.0065
13.1189,617,1.9903
13.1231,611,1.971
13.1274,605,1.9516
13.1316,593,1.9129
13.1359,577,1.8613
13.1402,564,1.8194
13.1445,553,1.7839
13.1493,540,1.7419
13.1535,523,1.6871
13.1578,509,1.6419
13.1621,497,1.6032
13.1663,488,1.5742
13.1706,487,1.571
13.1749,488,1.5742
13.1792,488,1.5742
13.1834,489,1.5774
13.1877,488,1.5742
13.1919,491,1.5839
13.1962,494,1.5935
13.2006,495,1.5968
13.2048,495,1.5968
13.2091,495,1.5968
13.2134,495,1.5968
13.2177,497,1.6032
13.2219,494,1.5935
13.2262,493,1.5903
13.2304,497,1.6032
13.2347,495,1.5968
13.239,494,1.5935
13.2433,492,1.5871
13.2475,491,1.5839
13.2521,492,1.5871
13.2564,492,1.5871
13.2607,494,1.5935
13.2649,499,1.6097
13.2692,502,1.6194
13.2734,505,1.629
13.2778,505,1.629
13.282,504,1.6258
13.2863,504,1.6258
13.2905,503,1.6226
13.2948,501,1.6161
13.2991,507,1.6355
13.3034,511,1.6484
13.3077,515,1.6613
13.3119,513,1.6548
13.3162,514,1.6581
13.3205,514,1.6581
13.3247,515,1.6613
13.329,520,1.6774
13.3333,525,1.6935
13.3376,525,1.6935
13.3419,525,1.6935
13.3461,524,1.6903
13.3504,523,1.6871
13.3546,526,1.6968
13.3589,526,1.6968
13.3631,525,1.6935
13.3674,529,1.7065
13.3716,531,1.7129
13.3759,535,1.7258
13.3801,541,1.7452
13.3844,541,1.7452
13.3887,541,1.7452
13.3929,547,1.7645
13.3971,554,1.7871
13.4014,555,1.7903
13.4057,550,1.7742
13.4099,548,1.7677
13.4142,547,1.7645
13.4185,545,1.7581
13.4228,544,1.7548
13.4271,546,1.7613
13.4313,544,1.7548
13.4356,546,1.7613
13.4399,546,1.7613
13.4442,549,1.771
13.4485,553,1.7839
13.4529,556,1.7935
13.4572,556,1.7935
13.4615,555,1.7903
13.4658,554,1.7871
13.4701,558,1.8
13.4744,554,1.7871
13.4787,551,1.7774
13.4831,552,1.7806
13.4874,555,1.7903
13.4916,558,1.8
13.496,566,1.8258
13.5003,575,1.8548
13.5047,576,1.8581
13.5089,570,1.8387
13.5133,561,1.8097
13.5176,560,1.8065
13.5219,566,1.8258
13.5262,575,1.8548
13.5305,580,1.871
13.5348,579,1.8677
13.5391,572,1.8452
13.5435,563,1.8161
13.5479,556,1.7935
13.5523,559,1.8032
13.5565,561,1.8097
13.5608,557,1.7968
13.5651,556,1.7935
13.5694,553,1.7839
13.5736,550,1.7742
13.5779,551,1.7774
13.5822,558,1.8
13.5865,561,1.8097
13.5907,561,1.8097
13.595,562,1.8129
13.5993,560,1.8065
13.6036,553,1.7839
13.6079,551,1.7774
13.6122,543,1.7516
13.6165,521,1.6806
13.6208,494,1.5935
13.6251,473,1.5258
13.6295,460,1.4839
13.6338,448,1.4452
13.6383,438,1.4129
13.6426,441,1.4226
13.6469,460,1.4839
13.6512,491,1.5839
13.6555,542,1.7484
13.6598,616,1.9871
13.6646,704,2.271
13.6689,682,2.2
13.6732,585,1.8871
13.6775,505,1.629
13.6818,487,1.571
13.6861,502,1.6194
13.6904,502,1.6194
13.6947,481,1.5516
13.6991,462,1.4903
13.7035,476,1.5355
13.7078,522,1.6839
13.7121,563,1.8161
13.7164,591,1.9065
13.7207,607,1.9581
13.725,614,1.9806
13.7293,621,2.0032
13.7337,629,2.029
13.7379,628,2.0258
13.7422,625,2.0161
13.7466,621,2.0032
13.7509,618,1.9935
13.7552,620,2
13.7595,623,2.0097
13.7638,627,2.0226
13.7681,620,2
13.7724,610,1.9677
13.7767,604,1.9484
13.781,604,1.9484
13.7853,607,1.9581
13.7896,612,1.9742
13.7939,612,1.9742
13.7982,611,1.971
13.8025,608,1.9613
13.8074,605,1.9516
13.8117,608,1.9613
13.816,611,1.971
13.8203,618,1.9935
13.8246,624,2.0129
13.8289,625,2.0161
13.8332,624,2.0129
13.8375,623,2.0097
13.8418,625,2.0161
13.8461,630,2.0323
13.8504,643,2.0742
13.8548,648,2.0903
13.859,650,2.0968
13.8633,652,2.1032
13.8676,658,2.1226
13.872,669,2.1581
13.8763,674,2.1742
13.8806,676,2.1806
13.8849,679,2.1903
13.8892,681,2.1968
13.8935,676,2.1806
13.8978,671,2.1645
13.9021,663,2.1387
13.9064,645,2.0806
13.9107,630,2.0323
13.915,620,2
13.9193,602,1.9419
13.9236,585,1.8871
13.9279,567,1.829
13.9324,550,1.7742
13.9368,534,1.7226
13.9411,526,1.6968
13.9454,512,1.6516
13.9497,491,1.5839
13.9541,473,1.5258
13.9584,470,1.5161
13.9627,471,1.5194
13.967,467,1.5065
13.9714,456,1.471
13.9757,451,1.4548
13.98,447,1.4419
13.9842,443,1.429
13.9885,440,1.4194
13.9929,435,1.4032
13.9972,429,1.3839
14.0015,429,1.3839
14.0059,428,1.3806
14.0102,434,1.4
14.0145,444,1.4323
14.0188,452,1.4581
14.0231,463,1.4935
14.0274,471,1.5194
14.0317,475,1.5323
14.036,477,1.5387
14.0403,484,1.5613
14.0446,491,1.5839
14.0489,486,1.5677
14.0532,480,1.5484
14.0576,479,1.5452
14.0618,482,1.5548
14.0661,484,1.5613
14.0704,486,1.5677
14.0748,497,1.6032
14.0791,505,1.629
14.0834,510,1.6452
14.0877,511,1.6484
14.092,514,1.6581
14.0963,521,1.6806
14.1006,526,1.6968
14.1049,527,1.7
14.1092,525,1.6935
14.114,523,1.6871
14.1183,525,1.6935
14.1226,526,1.6968
14.1269,524,1.6903
14.1312,529,1.7065
14.1355,531,1.7129
14.1398,526,1.6968
14.1441,518,1.671
14.1484,521,1.6806
14.1527,529,1.7065
14.1571,531,1.7129
14.1614,531,1.7129
14.1656,533,1.7194
14.1699,529,1.7065
14.1741,525,1.6935
14.1784,523,1.6871
14.1827,520,1.6774
14.187,520,1.6774
14.1915,519,1.6742
14.1958,527,1.7
14.2001,534,1.7226
14.2043,536,1.729
14.2086,543,1.7516
14.2129,550,1.7742
14.2172,560,1.8065
14.2215,562,1.8129
14.2258,560,1.8065
14.23,569,1.8355
14.2343,572,1.8452
14.2386,566,1.8258
14.2429,561,1.8097
14.2471,562,1.8129
14.2514,567,1.829
14.2557,562,1.8129
14.26,560,1.8065
14.2643,558,1.8
14.2685,556,1.7935
14.2728,554,1.7871
14.2772,553,1.7839
14.2814,553,1.7839
14.2857,547,1.7645
14.29,539,1.7387
14.2943,533,1.7194
14.2986,532,1.7161
14.3029,527,1.7
14.3073,518,1.671
14.3116,510,1.6452
14.3159,506,1.6323
14.3202,508,1.6387
14.3245,510,1.6452
14.3288,517,1.6677
14.333,528,1.7032
14.3373,531,1.7129
14.3416,534,1.7226
14.3459,542,1.7484
14.3502,546,1.7613
14.3545,538,1.7355
14.3589,531,1.7129
14.3632,543,1.7516
14.3676,569,1.8355
14.3719,601,1.9387
14.3762,633,2.0419
14.3805,677,2.1839
14.3849,725,2.3387
14.3892,690,2.2258
14.3935,596,1.9226
14.3979,519,1.6742
14.4022,510,1.6452
14.4066,545,1.7581
14.4109,548,1.7677
14.4152,509,1.6419
14.4196,480,1.5484
14.4239,473,1.5258
14.4282,501,1.6161
14.4326,536,1.729
14.4369,562,1.8129
14.4412,573,1.8484
14.4456,576,1.8581
14.4499,569,1.8355
14.4544,561,1.8097
14.4588,554,1.7871
14.4631,553,1.7839
14.4674,560,1.8065
14.4717,561,1.8097
14.476,562,1.8129
14.4803,560,1.8065
14.4846,558,1.8
14.4889,556,1.7935
14.4932,550,1.7742
14.4975,546,1.7613
14.5018,542,1.7484
14.5061,546,1.7613
14.5104,552,1.7806
14.5147,556,1.7935
14.519,563,1.8161
14.5233,572,1.8452
14.5276,581,1.8742
14.5321,582,1.8774
14.5365,590,1.9032
14.5409,602,1.9419
14.5452,611,1.971
14.5495,620,2
14.5538,630,2.0323
14.5581,631,2.0355
14.5624,628,2.0258
14.5667,629,2.029
14.571,633,2.0419
14.5753,638,2.0581
14.5796,636,2.0516
14.5839,639,2.0613
14.5882,644,2.0774
14.5925,656,2.1161
14.5968,658,2.1226
14.6011,655,2.1129
14.6054,656,2.1161
14.6098,646,2.0839
14.6141,624,2.0129
14.6184,604,1.9484
14.6227,603,1.9452
14.627,601,1.9387
14.6313,590,1.9032
14.6362,578,1.8645
14.6405,560,1.8065
14.6449,545,1.7581
14.6492,536,1.729
14.6535,531,1.7129
14.6578,528,1.7032
14.6621,523,1.6871
14.6664,519,1.6742
14.6707,512,1.6516
14.675,502,1.6194
14.6793,500,1.6129
14.6835,502,1.6194
14.6878,504,1.6258
14.6921,501,1.6161
14.6964,498,1.6065
14.7007,497,1.6032
14.705,498,1.6065
14.7093,504,1.6258
14.7137,510,1.6452
14.7179,504,1.6258
14.7223,504,1.6258
14.7266,507,1.6355
14.7309,504,1.6258
14.7352,498,1.6065
14.7394,498,1.6065
14.7437,502,1.6194
14.748,500,1.6129
14.7522,499,1.6097
14.7568,496,1.6
14.7611,496,1.6
14.7654,492,1.5871
14.7697,497,1.6032
14.774,503,1.6226
14.7783,502,1.6194
14.7825,500,1.6129
14.7869,507,1.6355
14.7912,514,1.6581
14.7955,524,1.6903
14.7997,532,1.7161
14.8043,529,1.7065
14.8086,515,1.6613
14.813,503,1.6226
14.8172,497,1.6032
14.8215,495,1.5968
14.8259,497,1.6032
14.8304,511,1.6484
14.8348,519,1.6742
14.8392,521,1.6806
14.8435,517,1.6677
14.8479,515,1.6613
14.8523,525,1.6935
14.8567,532,1.7161
14.8611,526,1.6968
14.8658,525,1.6935
14.8701,531,1.7129
14.8744,541,1.7452
14.8787,550,1.7742
14.883,551,1.7774
14.8873,552,1.7806
14.8916,546,1.7613
14.8959,539,1.7387
14.9002,531,1.7129
14.9045,525,1.6935
14.9088,519,1.6742
14.9131,517,1.6677
14.9174,512,1.6516
14.9217,500,1.6129
14.926,492,1.5871
14.9303,484,1.5613
14.9347,480,1.5484
14.9389,483,1.5581
14.9432,493,1.5903
14.9475,498,1.6065
14.9519,502,1.6194
14.9562,501,1.6161
14.9605,497,1.6032
14.9648,491,1.5839
14.9691,489,1.5774
14.9734,490,1.5806
14.9777,494,1.5935
14.982,500,1.6129
14.9863,503,1.6226
14.9906,506,1.6323
14.9949,510,1.6452
14.9992,509,1.6419
15.0035,499,1.6097
15.0097,488,1.5742
15.0144,484,1.5613
15.0189,484,1.5613
15.0234,479,1.5452
15.0315,522,1.6839
15.0361,558,1.8
15.0405,594,1.9161
15.0448,633,2.0419
15.049,675,2.1774
15.0537,634,2.0452
15.0581,554,1.7871
15.0623,488,1.5742
15.0666,484,1.5613
15.0708,520,1.6774
15.0751,527,1.7
15.0793,474,1.529
15.0836,433,1.3968
15.0879,419,1.3516
15.0921,439,1.4161
15.0963,474,1.529
15.1006,506,1.6323
15.1048,520,1.6774
15.1091,527,1.7
15.1133,516,1.6645
15.1176,495,1.5968
15.1219,479,1.5452
15.1261,470,1.5161
15.1304,468,1.5097
15.1346,477,1.5387
15.1393,492,1.5871
15.1435,504,1.6258
15.1477,514,1.6581
15.152,522,1.6839
15.1562,524,1.6903
15.1606,521,1.6806
15.1648,519,1.6742
15.1691,520,1.6774
15.1734,523,1.6871
15.1776,523,1.6871
15.1819,525,1.6935
15.1862,530,1.7097
15.1904,534,1.7226
15.1947,536,1.729
15.199,537,1.7323
15.2033,537,1.7323
15.2075,539,1.7387
15.2119,543,1.7516
15.2163,542,1.7484
15.2206,535,1.7258
15.2249,532,1.7161
15.2291,537,1.7323
15.2334,545,1.7581
15.2376,551,1.7774
15.2419,554,1.7871
15.2461,556,1.7935
15.2504,558,1.8
15.2546,558,1.8
15.2589,557,1.7968
15.2632,555,1.7903
15.2675,551,1.7774
15.2718,547,1.7645
15.2761,541,1.7452
15.2804,538,1.7355
15.2847,532,1.7161
15.289,516,1.6645
15.2932,498,1.6065
15.2975,481,1.5516
15.3018,464,1.4968
15.3062,457,1.4742
15.3104,452,1.4581
15.3147,447,1.4419
15.319,442,1.4258
15.3233,426,1.3742
15.3276,411,1.3258
15.3319,401,1.2935
15.3362,400,1.2903
15.3405,398,1.2839
15.3448,392,1.2645
15.3492,385,1.2419
15.3535,381,1.229
15.3578,384,1.2387
15.3622,388,1.2516
15.3665,395,1.2742
15.3708,400,1.2903
15.375,403,1.3
15.3793,403,1.3
15.3836,406,1.3097
15.3879,409,1.3194
15.3921,408,1.3161
15.3964,404,1.3032
15.4006,402,1.2968
15.4049,403,1.3
15.4092,399,1.2871
15.4134,385,1.2419
15.4177,375,1.2097
15.422,372,1.2
15.4263,367,1.1839
15.4307,359,1.1581
15.4351,355,1.1452
15.4395,358,1.1548
15.4438,370,1.1935
15.4481,379,1.2226
15.4523,385,1.2419
15.4566,388,1.2516
15.4608,392,1.2645
15.4651,398,1.2839
15.4694,400,1.2903
15.4736,404,1.3032
15.4779,398,1.2839
15.4822,387,1.2484
15.4865,385,1.2419
15.4907,388,1.2516
15.495,393,1.2677
15.4992,399,1.2871
15.5035,401,1.2935
15.5078,404,1.3032
15.512,402,1.2968
15.5163,397,1.2806
15.5206,393,1.2677
15.5248,394,1.271
15.5291,393,1.2677
15.5333,399,1.2871
15.5376,395,1.2742
15.5418,394,1.271
15.5461,390,1.2581
15.5503,391,1.2613
15.5546,390,1.2581
15.5588,390,1.2581
15.5631,390,1.2581
15.5674,387,1.2484
15.5719,383,1.2355
15.5763,379,1.2226
15.5807,376,1.2129
15.585,377,1.2161
15.5894,375,1.2097
15.5937,373,1.2032
15.598,367,1.1839
15.6022,361,1.1645
15.6065,357,1.1516
15.6107,352,1.1355
15.6151,358,1.1548
15.6193,365,1.1774
15.6237,368,1.1871
15.6279,367,1.1839
15.6322,364,1.1742
15.6365,361,1.1645
15.6408,353,1.1387
15.6453,339,1.0935
15.6496,331,1.0677
15.6539,330,1.0645
15.6582,330,1.0645
15.6625,335,1.0806
15.6668,337,1.0871
15.6711,341,1.1
15.6754,350,1.129
15.6797,361,1.1645
15.684,368,1.1871
15.6883,365,1.1774
15.6926,364,1.1742
15.6969,366,1.1806
15.7012,369,1.1903
15.7055,366,1.1806
15.7098,353,1.1387
15.7141,338,1.0903
15.7184,332,1.071
15.7227,329,1.0613
15.727,323,1.0419
15.7315,317,1.0226
15.7359,311,1.0032
15.7403,294,0.9484
15.7446,293,0.9452
15.7489,305,0.9839
15.7532,333,1.0742
15.7575,367,1.1839
15.7618,403,1.3
15.7662,446,1.4387
15.7705,485,1.5645
15.7748,458,1.4774
15.7791,355,1.1452
15.7834,267,0.8613
15.7876,236,0.7613
15.7919,247,0.7968
15.7962,244,0.7871
15.8005,215,0.6935
15.8049,198,0.6387
15.8091,225,0.7258
15.8134,274,0.8839
15.8177,323,1.0419
15.822,352,1.1355
15.8263,361,1.1645
15.8306,361,1.1645
15.8349,359,1.1581
15.8392,360,1.1613
15.8435,365,1.1774
15.8478,370,1.1935
15.8521,367,1.1839
15.8564,365,1.1774
15.8607,359,1.1581
15.865,353,1.1387
15.8694,355,1.1452
15.8737,356,1.1484
15.878,359,1.1581
15.8824,358,1.1548
15.8867,356,1.1484
15.891,357,1.1516
15.8953,361,1.1645
15.8997,362,1.1677
15.9041,361,1.1645
15.9084,367,1.1839
15.9127,373,1.2032
15.9171,382,1.2323
15.9214,387,1.2484
15.9257,391,1.2613
15.9301,394,1.271
15.9344,398,1.2839
15.9387,399,1.2871
15.9431,399,1.2871
15.9474,405,1.3065
15.9517,411,1.3258
15.9561,416,1.3419
15.9604,421,1.3581
15.9647,425,1.371
15.9691,428,1.3806
15.9734,435,1.4032
15.9777,435,1.4032
15.982,435,1.4032
15.9863,434,1.4
15.9906,441,1.4226
15.9949,458,1.4774
15.9992,481,1.5516
16.0035,498,1.6065
16.0078,504,1.6258
16.0121,507,1.6355
16.0164,509,1.6419
16.0207,510,1.6452
16.025,508,1.6387
16.0293,501,1.6161
16.0336,490,1.5806
16.0378,483,1.5581
16.0421,477,1.5387
16.0465,472,1.5226
16.0507,466,1.5032
16.055,457,1.4742
16.0593,450,1.4516
16.0636,442,1.4258
16.0679,436,1.4065
16.0723,436,1.4065
16.0766,434,1.4
16.081,431,1.3903
16.0853,428,1.3806
16.0896,426,1.3742
16.094,424,1.3677
16.0983,422,1.3613
16.1026,418,1.3484
16.107,412,1.329
16.1113,411,1.3258
16.1157,409,1.3194
16.12,410,1.3226
16.1243,402,1.2968
16.1287,393,1.2677
16.133,389,1.2548
16.1373,386,1.2452
16.1417,384,1.2387
16.146,376,1.2129
16.1503,372,1.2
16.1546,366,1.1806
16.159,364,1.1742
16.1633,369,1.1903
16.1676,378,1.2194
16.172,377,1.2161
16.1763,373,1.2032
16.1806,373,1.2032
16.1849,372,1.2
16.1892,371,1.1968
16.1935,372,1.2
16.1978,371,1.1968
16.2021,372,1.2
16.2064,372,1.2
16.2107,373,1.2032
16.215,371,1.1968
16.2193,363,1.171
16.2235,361,1.1645
16.2278,358,1.1548
16.2321,356,1.1484
16.2364,352,1.1355
16.2407,354,1.1419
16.245,359,1.1581
16.2493,366,1.1806
16.2536,372,1.2
16.2579,374,1.2065
16.2622,375,1.2097
16.2665,376,1.2129
16.2708,378,1.2194
16.2751,380,1.2258
16.2794,378,1.2194
16.2837,378,1.2194
16.288,380,1.2258
16.2924,380,1.2258
16.2967,380,1.2258
16.301,378,1.2194
16.3054,378,1.2194
16.3097,379,1.2226
16.3141,384,1.2387
16.3184,388,1.2516
16.3227,391,1.2613
16.3274,393,1.2677
16.333,393,1.2677
16.3375,392,1.2645
16.3419,389,1.2548
16.3463,388,1.2516
16.3507,388,1.2516
16.355,387,1.2484
16.3594,385,1.2419
16.3637,379,1.2226
16.368,366,1.1806
16.3724,357,1.1516
16.3767,354,1.1419
16.3811,357,1.1516
16.3854,369,1.1903
16.3897,379,1.2226
16.394,382,1.2323
16.3983,385,1.2419
16.4026,391,1.2613
16.4069,391,1.2613
16.4148,388,1.2516
16.4192,387,1.2484
16.4235,383,1.2355
16.4278,372,1.2
16.4321,356,1.1484
16.4364,344,1.1097
16.4407,331,1.0677
16.4449,322,1.0387
16.4492,316,1.0194
16.4535,310,1
16.4578,299,0.9645
16.4621,292,0.9419
16.4664,290,0.9355
16.4707,286,0.9226
16.475,284,0.9161
16.4793,286,0.9226
16.4837,287,0.9258
16.488,286,0.9226
16.4923,289,0.9323
16.4967,292,0.9419
16.501,294,0.9484
16.5053,295,0.9516
16.5097,292,0.9419
16.514,290,0.9355
16.5183,289,0.9323
16.5227,292,0.9419
16.5271,303,0.9774
16.5315,306,0.9871
16.5358,312,1.0065
16.5401,328,1.0581
16.5445,355,1.1452
16.5488,406,1.3097
16.5531,476,1.5355
16.5575,550,1.7742
16.5618,559,1.8032
16.5661,450,1.4516
16.5705,333,1.0742
16.5748,269,0.8677
16.5791,249,0.8032
16.5835,228,0.7355
16.5878,202,0.6516
16.5921,194,0.6258
16.5964,221,0.7129
16.6007,265,0.8548
16.605,300,0.9677
16.6093,315,1.0161
16.6136,313,1.0097
16.6179,312,1.0065
16.6222,310,1
16.6265,305,0.9839
16.6309,305,0.9839
16.6353,305,0.9839
16.6397,303,0.9774
16.6441,302,0.9742
16.6484,301,0.971
16.6527,302,0.9742
16.657,302,0.9742
16.6613,304,0.9806
16.6656,304,0.9806
16.6699,303,0.9774
16.6742,303,0.9774
16.6785,302,0.9742
16.6828,301,0.971
16.6872,302,0.9742
16.6915,303,0.9774
16.6958,304,0.9806
16.7001,306,0.9871
16.7044,307,0.9903
16.7087,309,0.9968
16.713,315,1.0161
16.7173,318,1.0258
16.7216,319,1.029
16.7259,322,1.0387
16.7302,324,1.0452
16.7345,328,1.0581
16.7388,331,1.0677
16.7431,334,1.0774
16.7474,338,1.0903
16.7517,342,1.1032
16.756,348,1.1226
16.7602,351,1.1323
16.7645,355,1.1452
16.7688,360,1.1613
16.7731,361,1.1645
16.7774,362,1.1677
16.7817,367,1.1839
16.7861,372,1.2
16.7904,377,1.2161
16.7948,379,1.2226
16.7991,378,1.2194
16.8034,375,1.2097
16.8078,367,1.1839
16.8121,358,1.1548
16.8165,349,1.1258
16.8208,339,1.0935
16.8251,326,1.0516
16.8295,314,1.0129
16.8338,305,0.9839
16.8381,297,0.9581
16.8425,290,0.9355
16.8468,288,0.929
16.8511,283,0.9129
16.8555,280,0.9032
16.8598,280,0.9032
16.8641,281,0.9065
16.8685,281,0.9065
16.8728,284,0.9161
16.8772,286,0.9226
16.8815,289,0.9323
16.8859,291,0.9387
16.8902,292,0.9419
16.8945,291,0.9387
16.8988,289,0.9323
16.9031,288,0.929
16.9074,287,0.9258
16.9117,289,0.9323
16.9159,293,0.9452
16.9202,294,0.9484
16.9245,295,0.9516
16.9288,296,0.9548
16.9331,299,0.9645
16.9374,302,0.9742
16.9417,303,0.9774
16.946,305,0.9839
16.9503,308,0.9935
16.9546,313,1.0097
16.9589,315,1.0161
16.9632,317,1.0226
16.9675,324,1.0452
16.9718,331,1.0677
16.9761,339,1.0935
16.9804,354,1.1419
16.9847,375,1.2097
16.9891,400,1.2903
16.9934,421,1.3581
16.9977,433,1.3968
17.0021,444,1.4323
17.0064,456,1.471
17.0107,468,1.5097
17.0151,471,1.5194
17.0194,474,1.529
17.0237,479,1.5452
17.0281,485,1.5645
17.0324,489,1.5774
17.0368,492,1.5871
17.0411,496,1.6
17.0454,499,1.6097
17.0498,500,1.6129
17.0541,501,1.6161
17.0584,503,1.6226
17.0628,502,1.6194
17.0671,502,1.6194
17.0715,503,1.6226
17.0758,504,1.6258
17.0801,505,1.629
17.0845,504,1.6258
17.0888,501,1.6161
17.0931,501,1.6161
17.0974,501,1.6161
17.1017,503,1.6226
17.106,503,1.6226
17.1103,503,1.6226
17.1146,505,1.629
17.1189,499,1.6097
17.1231,492,1.5871
17.1274,488,1.5742
17.1317,486,1.5677
17.136,485,1.5645
17.1403,486,1.5677
17.1446,488,1.5742
17.1489,490,1.5806
17.1532,492,1.5871
17.1575,492,1.5871
17.1618,496,1.6
17.1661,497,1.6032
17.1704,498,1.6065
17.1747,501,1.6161
17.179,503,1.6226
17.1834,505,1.629
17.1877,507,1.6355
17.1921,508,1.6387
17.1964,507,1.6355
17.2007,501,1.6161
17.2051,499,1.6097
17.2094,498,1.6065
17.2137,496,1.6
17.2181,496,1.6
17.2224,493,1.5903
17.2268,487,1.571
17.2312,487,1.571
17.2357,491,1.5839
17.2402,493,1.5903
17.2446,493,1.5903
17.2489,491,1.5839
17.2532,494,1.5935
17.2576,493,1.5903
17.262,492,1.5871
17.2664,491,1.5839
17.2707,483,1.5581
17.275,469,1.5129
17.2794,460,1.4839
17.2839,458,1.4774
17.2882,459,1.4806
17.2926,464,1.4968
17.2969,453,1.4613
17.3012,437,1.4097
17.3055,425,1.371
17.3098,416,1.3419
17.3141,413,1.3323
17.3184,405,1.3065
17.3227,397,1.2806
17.3271,390,1.2581
17.3314,379,1.2226
17.3358,368,1.1871
17.3401,360,1.1613
17.3444,355,1.1452
17.3487,353,1.1387
17.353,353,1.1387
17.3573,351,1.1323
17.3617,349,1.1258
17.366,348,1.1226
17.3702,349,1.1258
17.3745,352,1.1355
17.3788,361,1.1645
17.3832,388,1.2516
17.3875,428,1.3806
17.3918,487,1.571
17.3961,556,1.7935
17.4004,620,2
17.4047,597,1.9258
17.409,479,1.5452
17.4133,373,1.2032
17.4176,324,1.0452
17.4219,321,1.0355
17.4263,312,1.0065
17.4306,311,1.0032
17.4349,334,1.0774
17.4392,389,1.2548
17.4435,456,1.471
17.4478,506,1.6323
17.4521,532,1.7161
17.4564,544,1.7548
17.4607,550,1.7742
17.465,551,1.7774
17.4693,551,1.7774
17.4736,556,1.7935
17.4779,562,1.8129
17.4822,558,1.8
17.4871,557,1.7968
17.4914,557,1.7968
17.4957,559,1.8032
17.5007,561,1.8097
17.5051,568,1.8323
17.5094,575,1.8548
17.5136,576,1.8581
17.5179,577,1.8613
17.5222,580,1.871
17.5266,581,1.8742
17.5309,582,1.8774
17.5354,586,1.8903
17.5398,586,1.8903
17.5442,583,1.8806
17.5485,577,1.8613
17.5528,577,1.8613
17.5572,581,1.8742
17.5615,577,1.8613
17.5665,560,1.8065
17.5708,553,1.7839
17.5751,547,1.7645
17.5793,543,1.7516
17.5837,542,1.7484
17.5884,542,1.7484
17.5927,544,1.7548
17.597,547,1.7645
17.6013,546,1.7613
17.6056,545,1.7581
17.61,543,1.7516
17.6143,545,1.7581
17.6186,547,1.7645
17.6229,549,1.771
17.6272,549,1.771
17.6315,550,1.7742
17.6358,553,1.7839
17.6401,556,1.7935
17.6445,561,1.8097
17.6488,566,1.8258
17.6531,568,1.8323
17.6574,559,1.8032
17.6617,541,1.7452
17.666,519,1.6742
17.6703,500,1.6129
17.6746,485,1.5645
17.6789,468,1.5097
17.6832,461,1.4871
17.6875,448,1.4452
17.6918,436,1.4065
17.6962,429,1.3839
17.7005,425,1.371
17.7048,428,1.3806
17.7091,425,1.371
17.7134,423,1.3645
17.7177,421,1.3581
17.722,418,1.3484
17.7263,414,1.3355
17.7306,408,1.3161
17.7349,405,1.3065
17.7394,403,1.3
17.7437,402,1.2968
17.748,406,1.3097
17.7523,411,1.3258
17.7566,414,1.3355
17.7609,416,1.3419
17.7652,416,1.3419
17.7695,420,1.3548
17.7739,425,1.371
17.7782,429,1.3839
17.7824,430,1.3871
17.7872,432,1.3935
17.7916,439,1.4161
17.7959,447,1.4419
17.8002,451,1.4548
17.8045,460,1.4839
17.8088,472,1.5226
17.8131,478,1.5419
17.8174,481,1.5516
17.8217,484,1.5613
17.826,484,1.5613
17.8303,482,1.5548
17.8346,479,1.5452
17.8389,476,1.5355
17.8432,476,1.5355
17.8476,481,1.5516
17.8519,487,1.571
17.8562,491,1.5839
17.8605,494,1.5935
17.8648,498,1.6065
17.8691,507,1.6355
17.8734,533,1.7194
17.8777,563,1.8161
17.882,582,1.8774
17.8863,596,1.9226
17.8906,609,1.9645
17.8949,618,1.9935
17.8992,627,2.0226
17.9035,631,2.0355
17.9078,637,2.0548
17.9121,638,2.0581
17.9165,640,2.0645
17.9208,639,2.0613
17.925,637,2.0548
17.9293,636,2.0516
17.9336,632,2.0387
17.938,632,2.0387
17.9423,636,2.0516
17.9466,644,2.0774
17.9509,651,2.1
17.9552,654,2.1097
17.9595,650,2.0968
17.9638,646,2.0839
17.9681,643,2.0742
17.9724,638,2.0581
17.9767,638,2.0581
17.981,634,2.0452
17.9853,622,2.0065
17.9897,611,1.971
17.994,619,1.9968
17.9983,625,2.0161
18.0026,627,2.0226
18.007,618,1.9935
18.0113,613,1.9774
18.0162,609,1.9645
18.0205,615,1.9839
18.0248,618,1.9935
18.0291,617,1.9903
18.0334,623,2.0097
18.0377,624,2.0129
18.042,617,1.9903
18.0463,611,1.971
18.0506,610,1.9677
18.0549,608,1.9613
18.0593,600,1.9355
18.0636,600,1.9355
18.0679,599,1.9323
18.0721,607,1.9581
18.0764,613,1.9774
18.0808,617,1.9903
18.0851,615,1.9839
18.0894,615,1.9839
18.0937,614,1.9806
18.098,615,1.9839
18.1023,617,1.9903
18.1066,619,1.9968
18.1109,611,1.971
18.1152,603,1.9452
18.1196,597,1.9258
18.1239,597,1.9258
18.1282,597,1.9258
18.1326,595,1.9194
18.1371,592,1.9097
18.1415,589,1.9
18.1464,584,1.8839
18.1507,585,1.8871
18.155,585,1.8871
18.1594,586,1.8903
18.1637,588,1.8968
18.168,586,1.8903
18.1723,583,1.8806
18.1766,585,1.8871
18.1809,583,1.8806
18.1852,575,1.8548
18.1898,570,1.8387
18.1942,567,1.829
18.1985,565,1.8226
18.2029,566,1.8258
18.2072,570,1.8387
18.2115,572,1.8452
18.2158,571,1.8419
18.2207,577,1.8613
18.225,603,1.9452
18.2293,642,2.071
18.2336,702,2.2645
18.2379,773,2.4935
18.2422,816,2.6323
18.2465,741,2.3903
18.2508,615,1.9839
18.2551,529,1.7065
18.2594,502,1.6194
18.2637,497,1.6032
18.268,474,1.529
18.2723,451,1.4548
18.2766,452,1.4581
18.2809,482,1.5548
18.2852,515,1.6613
18.2895,535,1.7258
18.2938,542,1.7484
18.2982,541,1.7452
18.3025,538,1.7355
18.3068,539,1.7387
18.3111,540,1.7419
18.3154,535,1.7258
18.3197,527,1.7
18.324,528,1.7032
18.3283,530,1.7097
18.3326,535,1.7258
18.3369,537,1.7323
18.3412,540,1.7419
18.3455,541,1.7452
18.3499,538,1.7355
18.3541,534,1.7226
18.3584,534,1.7226
18.3627,535,1.7258
18.3671,535,1.7258
18.3714,536,1.729
18.3757,538,1.7355
18.38,541,1.7452
18.3843,545,1.7581
18.3886,544,1.7548
18.393,543,1.7516
18.3973,544,1.7548
18.4016,540,1.7419
18.4059,536,1.729
18.4102,537,1.7323
18.4145,539,1.7387
18.4188,541,1.7452
18.4231,542,1.7484
18.4275,544,1.7548
18.432,547,1.7645
18.4364,551,1.7774
18.4412,556,1.7935
18.4455,561,1.8097
18.4499,567,1.829
18.4542,564,1.8194
18.4585,558,1.8
18.4628,556,1.7935
18.4672,557,1.7968
18.4715,555,1.7903
18.4758,548,1.7677
18.48,545,1.7581
18.4843,544,1.7548
18.4887,539,1.7387
18.493,530,1.7097
18.4973,516,1.6645
18.5017,498,1.6065
18.506,478,1.5419
18.5104,467,1.5065
18.5147,458,1.4774
18.519,451,1.4548
18.5233,439,1.4161
18.5276,422,1.3613
18.5319,409,1.3194
18.5362,395,1.2742
18.5405,393,1.2677
18.5449,399,1.2871
18.5492,406,1.3097
18.5535,411,1.3258
18.5578,414,1.3355
18.5621,418,1.3484
18.5664,419,1.3516
18.5707,419,1.3516
18.575,419,1.3516
18.5793,418,1.3484
18.5836,410,1.3226
18.5884,395,1.2742
18.5927,389,1.2548
18.5971,388,1.2516
18.6014,389,1.2548
18.6057,389,1.2548
18.61,383,1.2355
18.6143,375,1.2097
18.6186,355,1.1452
18.6229,336,1.0839
18.6272,320,1.0323
18.6315,312,1.0065
18.6358,307,0.9903
18.6401,307,0.9903
18.6444,308,0.9935
18.6487,316,1.0194
18.6531,322,1.0387
18.6574,325,1.0484
18.6617,326,1.0516
18.666,328,1.0581
18.6703,330,1.0645
18.6746,332,1.071
18.6789,339,1.0935
18.6832,347,1.1194
18.6875,355,1.1452
18.6918,368,1.1871
18.6961,378,1.2194
18.7004,387,1.2484
18.7047,392,1.2645
18.709,395,1.2742
18.7133,406,1.3097
18.7176,417,1.3452
18.7219,433,1.3968
18.7262,449,1.4484
18.7305,457,1.4742
18.7349,464,1.4968
18.7392,472,1.5226
18.7435,479,1.5452
18.7478,487,1.571
18.7521,490,1.5806
18.7564,495,1.5968
18.7607,500,1.6129
18.765,503,1.6226
18.7693,507,1.6355
18.7736,510,1.6452
18.7779,508,1.6387
18.7822,502,1.6194
18.7865,500,1.6129
18.7908,492,1.5871
18.7951,492,1.5871
18.7994,494,1.5935
18.8038,493,1.5903
18.8081,496,1.6
18.8124,488,1.5742
18.8167,483,1.5581
18.8209,483,1.5581
18.8252,491,1.5839
18.8294,495,1.5968
18.8337,500,1.6129
18.8379,505,1.629
18.8422,513,1.6548
18.8464,515,1.6613
18.8507,511,1.6484
18.855,500,1.6129
18.8592,495,1.5968
18.8635,493,1.5903
18.8678,491,1.5839
18.8721,492,1.5871
18.8763,492,1.5871
18.8806,484,1.5613
18.8848,476,1.5355
18.8891,478,1.5419
18.8933,477,1.5387
18.8976,482,1.5548
18.9019,493,1.5903
18.9062,502,1.6194
18.9105,515,1.6613
18.9149,533,1.7194
18.9192,545,1.7581
18.9236,547,1.7645
18.9279,545,1.7581
18.9322,546,1.7613
18.9366,551,1.7774
18.941,556,1.7935
18.9453,560,1.8065
18.9496,555,1.7903
18.954,546,1.7613
18.9584,529,1.7065
18.9627,510,1.6452
18.9671,488,1.5742
18.9718,469,1.5129
18.9762,457,1.4742
18.9805,447,1.4419
18.9849,454,1.4645
18.9892,476,1.5355
18.9935,497,1.6032
18.998,511,1.6484
19.0023,523,1.6871
19.0066,526,1.6968
19.0109,524,1.6903
19.0152,526,1.6968
19.0194,526,1.6968
19.0237,527,1.7
19.028,530,1.7097
19.0324,523,1.6871
19.0367,511,1.6484
19.0411,509,1.6419
19.0454,510,1.6452
19.0496,515,1.6613
19.0539,526,1.6968
19.0581,549,1.771
19.0624,573,1.8484
19.0667,618,1.9935
19.0709,698,2.2516
19.0752,780,2.5161
19.0795,794,2.5613
19.0837,702,2.2645
19.088,591,1.9065
19.0922,530,1.7097
19.0965,522,1.6839
19.1007,511,1.6484
19.105,483,1.5581
19.1092,473,1.5258
19.1135,497,1.6032
19.1178,540,1.7419
19.122,582,1.8774
19.1264,602,1.9419
19.1306,608,1.9613
19.1349,607,1.9581
19.1391,599,1.9323
19.1434,593,1.9129
19.1477,589,1.9
19.1519,580,1.871
19.1562,579,1.8677
19.1605,581,1.8742
19.1647,577,1.8613
19.169,564,1.8194
19.1732,553,1.7839
19.1775,545,1.7581
19.1817,534,1.7226
19.186,523,1.6871
19.1902,518,1.671
19.1945,514,1.6581
19.1987,521,1.6806
19.203,522,1.6839
19.2073,518,1.671
19.2116,514,1.6581
19.2159,511,1.6484
19.2202,511,1.6484
19.2245,519,1.6742
19.2288,528,1.7032
19.2331,535,1.7258
19.2374,543,1.7516
19.2417,547,1.7645
19.246,550,1.7742
19.2509,558,1.8
19.2552,566,1.8258
19.2595,573,1.8484
19.2638,585,1.8871
19.2681,599,1.9323
19.2724,606,1.9548
19.2767,608,1.9613
19.281,608,1.9613
19.2853,605,1.9516
19.2895,604,1.9484
19.2939,604,1.9484
19.2981,600,1.9355
19.3025,596,1.9226
19.3068,587,1.8935
19.311,578,1.8645
19.3153,571,1.8419
19.3196,562,1.8129
19.3238,555,1.7903
19.3281,554,1.7871
19.3326,560,1.8065
19.3369,560,1.8065
19.3413,561,1.8097
19.3456,555,1.7903
19.3499,545,1.7581
19.3542,540,1.7419
19.3584,537,1.7323
19.3627,532,1.7161
19.367,531,1.7129
19.3713,526,1.6968
19.3755,517,1.6677
19.3798,508,1.6387
19.3841,498,1.6065
19.3883,487,1.571
19.3926,490,1.5806
19.3969,500,1.6129
19.4011,511,1.6484
19.4055,523,1.6871
19.4097,537,1.7323
19.414,542,1.7484
19.4182,541,1.7452
19.4225,537,1.7323
19.4268,543,1.7516
19.431,551,1.7774
19.4352,557,1.7968
19.4395,566,1.8258
19.4438,570,1.8387
19.448,566,1.8258
19.4523,567,1.829
19.4566,570,1.8387
19.4608,570,1.8387
19.4651,564,1.8194
19.4694,559,1.8032
19.4736,556,1.7935
19.4779,552,1.7806
19.4821,546,1.7613
19.4864,531,1.7129
19.4906,519,1.6742
19.4949,517,1.6677
19.4991,519,1.6742
19.5034,516,1.6645
19.5078,515,1.6613
19.5121,515,1.6613
19.5164,512,1.6516
19.5206,510,1.6452
19.525,508,1.6387
19.5292,506,1.6323
19.5335,508,1.6387
19.5378,509,1.6419
19.5421,506,1.6323
19.5464,502,1.6194
19.5507,505,1.629
19.555,517,1.6677
19.5592,529,1.7065
19.5635,534,1.7226
19.5679,541,1.7452
19.5722,548,1.7677
19.5765,543,1.7516
19.5808,530,1.7097
19.5851,511,1.6484
19.5894,499,1.6097
19.5937,493,1.5903
19.5979,492,1.5871
19.6023,510,1.6452
19.6066,529,1.7065
19.6109,543,1.7516
19.6152,556,1.7935
19.6195,554,1.7871
19.6238,553,1.7839
19.6281,552,1.7806
19.6323,551,1.7774
19.6366,560,1.8065
19.6409,574,1.8516
19.6452,585,1.8871
19.6496,586,1.8903
19.6539,571,1.8419
19.6582,566,1.8258
19.6625,564,1.8194
19.6668,564,1.8194
19.671,568,1.8323
19.6754,569,1.8355
19.6796,567,1.829
19.6839,565,1.8226
19.6882,556,1.7935
19.6925,559,1.8032
19.6968,562,1.8129
19.7011,562,1.8129
19.7054,566,1.8258
19.7097,568,1.8323
19.7139,572,1.8452
19.7182,578,1.8645
19.7225,583,1.8806
19.7267,588,1.8968
19.731,594,1.9161
19.7353,596,1.9226
19.7395,591,1.9065
19.7438,596,1.9226
19.7481,594,1.9161
19.7523,600,1.9355
19.7566,610,1.9677
19.7608,612,1.9742
19.7651,605,1.9516
19.7694,598,1.929
19.7736,596,1.9226
19.7779,590,1.9032
19.7821,589,1.9
19.7864,592,1.9097
19.7906,589,1.9
19.7949,583,1.8806
19.7991,576,1.8581
19.8035,570,1.8387
19.8078,567,1.829
19.8121,564,1.8194
19.8164,562,1.8129
19.8207,562,1.8129
19.8249,559,1.8032
19.8292,560,1.8065
19.8336,563,1.8161
19.8379,563,1.8161
19.8422,557,1.7968
19.8464,551,1.7774
19.8507,546,1.7613
19.855,548,1.7677
19.8593,548,1.7677
19.8636,539,1.7387
19.8679,533,1.7194
19.8722,548,1.7677
19.8765,577,1.8613
19.8808,622,2.0065
19.8851,684,2.2065
19.8894,754,2.4323
19.8937,779,2.5129
19.898,693,2.2355
19.9023,575,1.8548
19.9065,505,1.629
19.9108,506,1.6323
19.9151,522,1.6839
19.9194,501,1.6161
19.9237,471,1.5194
19.928,470,1.5161
19.9324,502,1.6194
19.9367,540,1.7419
19.9411,563,1.8161
19.9454,567,1.829
19.9497,560,1.8065
19.9543,551,1.7774
19.9586,546,1.7613
19.9628,546,1.7613
19.9671,547,1.7645
19.9714,549,1.771
19.9757,548,1.7677
19.9799,541,1.7452
19.9842,543,1.7516
19.9884,545,1.7581
19.9927,550,1.7742
19.997,552,1.7806
20.0012,547,1.7645
20.0055,545,1.7581
20.0098,548,1.7677
20.0141,547,1.7645
20.0185,544,1.7548
20.023,532,1.7161
20.0275,528,1.7032
20.032,531,1.7129
20.0365,538,1.7355
20.0413,542,1.7484
20.0457,538,1.7355
20.0501,541,1.7452
20.0543,546,1.7613
20.0586,548,1.7677
20.063,553,1.7839
20.0673,557,1.7968
20.0715,560,1.8065
20.0758,564,1.8194
20.0801,573,1.8484
20.0844,581,1.8742
20.0887,587,1.8935
20.093,589,1.9
20.0973,587,1.8935
20.1017,583,1.8806
20.1061,576,1.8581
20.1104,581,1.8742
20.1147,583,1.8806
20.119,585,1.8871
20.1232,584,1.8839
20.1275,581,1.8742
20.1318,577,1.8613
20.136,577,1.8613
20.1403,568,1.8323
20.1446,556,1.7935
20.1488,542,1.7484
20.1531,519,1.6742
20.1574,506,1.6323
20.1617,499,1.6097
20.166,495,1.5968
20.1702,491,1.5839
20.1744,488,1.5742
20.1788,484,1.5613
20.183,477,1.5387
20.1873,472,1.5226
20.1915,470,1.5161
20.1957,467,1.5065
20.2,465,1.5
20.2043,463,1.4935
20.2085,459,1.4806
20.2129,457,1.4742
20.2171,456,1.471
20.2215,456,1.471
20.2258,454,1.4645
20.2301,456,1.471
20.2346,457,1.4742
20.239,454,1.4645
20.2434,441,1.4226
20.2478,425,1.371
20.2522,415,1.3387
20.2565,411,1.3258
20.2609,408,1.3161
20.2653,410,1.3226
20.2696,417,1.3452
20.2739,419,1.3516
20.2783,414,1.3355
20.2826,411,1.3258
20.287,412,1.329
20.2913,417,1.3452
20.2957,420,1.3548
20.3,416,1.3419
20.3043,419,1.3516
20.3088,425,1.371
20.3132,425,1.371
20.3175,432,1.3935
20.3218,449,1.4484
20.3261,451,1.4548
20.3303,450,1.4516
20.3346,451,1.4548
20.3388,456,1.471
20.3431,462,1.4903
20.3474,468,1.5097
20.3516,472,1.5226
20.3559,471,1.5194
20.3602,467,1.5065
20.3644,465,1.5
20.3687,461,1.4871
20.373,450,1.4516
20.3772,436,1.4065
20.3815,424,1.3677
20.3858,428,1.3806
20.39,433,1.3968
20.3943,435,1.4032
20.3986,436,1.4065
20.4029,433,1.3968
20.4071,434,1.4
20.4114,437,1.4097
20.4157,435,1.4032
20.42,435,1.4032
20.4243,438,1.4129
20.4287,438,1.4129
20.433,435,1.4032
20.4374,428,1.3806
20.4417,429,1.3839
20.446,435,1.4032
20.4504,439,1.4161
20.4547,442,1.4258
20.4591,442,1.4258
20.4634,442,1.4258
20.4678,441,1.4226
20.4721,445,1.4355
20.4765,448,1.4452
20.4808,453,1.4613
20.4852,453,1.4613
20.4895,456,1.471
20.4938,457,1.4742
20.4981,459,1.4806
20.5023,461,1.4871
20.5066,460,1.4839
20.5109,465,1.5
20.5152,471,1.5194
20.5195,467,1.5065
20.5238,460,1.4839
20.528,453,1.4613
20.5323,452,1.4581
20.5366,458,1.4774
20.5408,467,1.5065
20.5451,472,1.5226
20.5493,475,1.5323
20.5536,481,1.5516
20.5579,497,1.6032
20.5621,503,1.6226
20.5664,499,1.6097
20.5707,490,1.5806
20.5749,483,1.5581
20.5792,483,1.5581
20.5834,483,1.5581
20.5877,477,1.5387
20.592,464,1.4968
20.5962,456,1.471
20.6005,453,1.4613
20.6048,455,1.4677
20.609,455,1.4677
20.6133,461,1.4871
20.6176,468,1.5097
20.6219,459,1.4806
20.6262,447,1.4419
20.6305,446,1.4387
20.6348,440,1.4194
20.6391,433,1.3968
20.6434,436,1.4065
20.6477,436,1.4065
20.652,442,1.4258
20.6563,461,1.4871
20.6606,472,1.5226
20.6649,475,1.5323
20.6692,475,1.5323
20.6736,471,1.5194
20.6779,472,1.5226
20.6821,474,1.529
20.6865,472,1.5226
20.6908,468,1.5097
20.695,469,1.5129
20.6994,488,1.5742
20.7036,516,1.6645
20.7079,564,1.8194
20.7122,641,2.0677
20.7166,718,2.3161
20.7209,744,2.4
20.7251,659,2.1258
20.7294,539,1.7387
20.7338,463,1.4935
20.738,456,1.471
20.7423,454,1.4645
20.7466,432,1.3935
20.751,421,1.3581
20.7553,439,1.4161
20.7596,476,1.5355
20.7639,516,1.6645
20.7681,543,1.7516
20.7725,553,1.7839
20.7767,548,1.7677
20.781,545,1.7581
20.7853,550,1.7742
20.7896,557,1.7968
20.7939,563,1.8161
20.7982,567,1.829
20.8025,566,1.8258
20.8068,563,1.8161
20.8111,567,1.829
20.8154,574,1.8516
20.8197,584,1.8839
20.8241,588,1.8968
20.8284,588,1.8968
20.8329,591,1.9065
20.8374,592,1.9097
20.8418,595,1.9194
20.8461,598,1.929
20.8505,601,1.9387
20.8548,605,1.9516
20.8591,611,1.971
20.8634,618,1.9935
20.8677,623,2.0097
20.872,628,2.0258
20.8763,629,2.029
20.8806,631,2.0355
20.8849,633,2.0419
20.8892,633,2.0419
20.8935,634,2.0452
20.8979,631,2.0355
20.9022,629,2.029
20.9065,632,2.0387
20.9108,636,2.0516
20.9151,643,2.0742
20.9194,649,2.0935
20.9237,654,2.1097
20.9279,657,2.1194
20.9322,657,2.1194
20.9365,655,2.1129
20.9407,656,2.1161
20.945,661,2.1323
20.9493,663,2.1387
20.9535,658,2.1226
20.9578,651,2.1
20.9621,642,2.071
20.9663,637,2.0548
20.9706,625,2.0161
20.9749,604,1.9484
20.9791,589,1.9
20.9834,576,1.8581
20.9877,563,1.8161
20.9919,551,1.7774
20.9963,541,1.7452
21.0006,531,1.7129
21.0049,525,1.6935
21.0092,517,1.6677
21.0136,511,1.6484
21.0179,507,1.6355
21.0223,503,1.6226
21.0267,496,1.6
21.031,483,1.5581
21.0353,484,1.5613
21.0397,487,1.571
21.044,489,1.5774
21.0484,490,1.5806
21.0527,488,1.5742
21.0572,489,1.5774
21.0615,499,1.6097
21.0657,502,1.6194
21.07,503,1.6226
21.0743,510,1.6452
21.0786,513,1.6548
21.0829,514,1.6581
21.0872,514,1.6581
21.0915,513,1.6548
21.0958,513,1.6548
21.1001,517,1.6677
21.1044,522,1.6839
21.1087,523,1.6871
21.113,518,1.671
21.1173,513,1.6548
21.1216,506,1.6323
21.1258,503,1.6226
21.1301,502,1.6194
21.1363,504,1.6258
21.1407,505,1.629
21.145,497,1.6032
21.1493,493,1.5903
21.1535,497,1.6032
21.1578,497,1.6032
21.1621,483,1.5581
21.1663,463,1.4935
21.1706,446,1.4387
21.1749,436,1.4065
21.1792,441,1.4226
21.1834,448,1.4452
21.1877,455,1.4677
21.192,455,1.4677
21.1962,464,1.4968
21.2005,474,1.529
21.2048,476,1.5355
21.209,473,1.5258
21.2133,474,1.529
21.2175,477,1.5387
21.2218,479,1.5452
21.226,478,1.5419
21.2303,470,1.5161
21.2345,457,1.4742
21.2388,451,1.4548
21.2431,454,1.4645
21.2473,453,1.4613
21.2516,451,1.4548
21.2558,452,1.4581
21.2601,455,1.4677
21.2644,457,1.4742
21.2686,457,1.4742
21.2729,457,1.4742
21.2771,458,1.4774
21.2814,459,1.4806
21.2857,458,1.4774
21.2899,457,1.4742
21.2942,458,1.4774
21.2985,464,1.4968
21.3028,472,1.5226
21.307,474,1.529
21.3113,480,1.5484
21.3157,487,1.571
21.32,486,1.5677
21.3243,483,1.5581
21.3285,478,1.5419
21.3329,476,1.5355
21.3371,481,1.5516
21.3414,481,1.5516
21.3457,480,1.5484
21.3501,477,1.5387
21.3544,473,1.5258
21.3587,471,1.5194
21.363,479,1.5452
21.3673,487,1.571
21.3715,498,1.6065
21.3758,505,1.629
21.3801,515,1.6613
21.3844,524,1.6903
21.3887,528,1.7032
21.393,528,1.7032
21.3973,528,1.7032
21.4016,525,1.6935
21.4059,523,1.6871
21.4102,519,1.6742
21.4145,512,1.6516
21.4188,505,1.629
21.4231,498,1.6065
21.4274,495,1.5968
21.4316,492,1.5871
21.4359,488,1.5742
21.4402,488,1.5742
21.4444,488,1.5742
21.4487,486,1.5677
21.4529,483,1.5581
21.4572,483,1.5581
21.4615,482,1.5548
21.4657,480,1.5484
21.47,478,1.5419
21.4743,477,1.5387
21.4786,477,1.5387
21.4828,476,1.5355
21.4871,476,1.5355
21.4914,477,1.5387
21.4956,478,1.5419
21.4999,480,1.5484
21.5041,482,1.5548
21.5084,484,1.5613
21.5127,482,1.5548
21.5171,477,1.5387
21.5213,480,1.5484
21.5256,502,1.6194
21.5299,536,1.729
21.5342,588,1.8968
21.5385,662,2.1355
21.5428,731,2.3581
21.5471,725,2.3387
21.5514,619,1.9968
21.5557,501,1.6161
21.56,448,1.4452
21.5643,451,1.4548
21.5686,445,1.4355
21.5729,423,1.3645
21.5772,426,1.3742
21.5815,469,1.5129
21.5858,526,1.6968
21.5901,576,1.8581
21.5944,614,1.9806
21.5987,633,2.0419
21.603,647,2.0871
21.6073,651,2.1
21.6116,651,2.1
21.6159,652,2.1032
21.6202,654,2.1097
21.6245,654,2.1097
21.6288,658,2.1226
21.6331,658,2.1226
21.6374,657,2.1194
21.6417,660,2.129
21.646,662,2.1355
21.6503,664,2.1419
21.6546,647,2.0871
21.6588,622,2.0065
21.6631,600,1.9355
21.6674,583,1.8806
21.6718,572,1.8452
21.6761,559,1.8032
21.6804,553,1.7839
21.6847,548,1.7677
21.689,542,1.7484
21.6933,535,1.7258
21.6976,527,1.7
21.7019,520,1.6774
21.7062,516,1.6645
21.7105,515,1.6613
21.7148,522,1.6839
21.7229,532,1.7161
21.7274,534,1.7226
21.7317,542,1.7484
21.7378,552,1.7806
21.7422,555,1.7903
21.7465,560,1.8065
21.7508,561,1.8097
21.7551,568,1.8323
21.7594,573,1.8484
21.7637,573,1.8484
21.768,565,1.8226
21.7723,554,1.7871
21.7766,546,1.7613
21.7808,538,1.7355
21.7852,525,1.6935
21.7895,514,1.6581
21.7938,503,1.6226
21.7981,490,1.5806
21.8024,475,1.5323
21.8067,461,1.4871
21.811,448,1.4452
21.8153,434,1.4
21.8197,426,1.3742
21.8245,427,1.3774
21.8288,428,1.3806
21.8331,427,1.3774
21.8373,429,1.3839
21.8416,427,1.3774
21.8459,429,1.3839
21.8502,428,1.3806
21.8544,431,1.3903
21.8587,432,1.3935
21.863,425,1.371
21.8672,412,1.329
21.8715,401,1.2935
21.8758,392,1.2645
21.8805,387,1.2484
21.8848,386,1.2452
21.889,387,1.2484
21.8933,386,1.2452
21.8976,385,1.2419
21.9019,390,1.2581
21.9062,393,1.2677
21.9104,394,1.271
21.9147,398,1.2839
21.9189,420,1.3548
21.9232,449,1.4484
21.9275,470,1.5161
21.9318,491,1.5839
21.9361,511,1.6484
21.9403,526,1.6968
21.9446,532,1.7161
21.9489,540,1.7419
21.9531,545,1.7581
21.9574,552,1.7806
21.9616,558,1.8
21.9659,564,1.8194
21.9702,557,1.7968
21.9744,539,1.7387
21.9787,528,1.7032
21.983,521,1.6806
21.9872,518,1.671
21.9915,515,1.6613
21.9957,514,1.6581
22,523,1.6871
22.0043,539,1.7387
22.0085,548,1.7677
22.0128,555,1.7903
22.0171,557,1.7968
22.0214,549,1.771
22.0257,549,1.771
22.03,553,1.7839
22.0344,553,1.7839
22.0388,553,1.7839
22.0433,558,1.8
22.0476,565,1.8226
22.0519,572,1.8452
22.0562,578,1.8645
22.0605,581,1.8742
22.0648,577,1.8613
22.069,571,1.8419
22.0733,566,1.8258
22.0776,565,1.8226
22.0819,566,1.8258
22.0862,566,1.8258
22.0915,564,1.8194
22.0957,564,1.8194
22.1,561,1.8097
22.1043,559,1.8032
22.1086,558,1.8
22.1129,556,1.7935
22.1172,554,1.7871
22.1216,549,1.771
22.1259,547,1.7645
22.1302,547,1.7645
22.1345,547,1.7645
22.1387,543,1.7516
22.143,539,1.7387
22.1473,533,1.7194
22.1515,531,1.7129
22.1558,527,1.7
22.16,525,1.6935
22.1643,521,1.6806
22.1686,521,1.6806
22.1728,519,1.6742
22.1771,517,1.6677
22.1814,511,1.6484
22.1856,508,1.6387
22.1899,512,1.6516
22.1942,522,1.6839
22.1984,532,1.7161
22.2027,536,1.729
22.207,534,1.7226
22.2112,529,1.7065
22.2155,529,1.7065
22.2197,529,1.7065
22.224,524,1.6903
22.2283,517,1.6677
22.2326,510,1.6452
22.237,502,1.6194
22.2412,497,1.6032
22.2455,494,1.5935
22.2498,492,1.5871
22.2541,491,1.5839
22.2584,492,1.5871
22.2627,488,1.5742
22.267,483,1.5581
22.2713,481,1.5516
22.2756,481,1.5516
22.2799,482,1.5548
22.2842,483,1.5581
22.2885,485,1.5645
22.2928,486,1.5677
22.2972,487,1.571
22.3014,489,1.5774
22.3057,487,1.571
22.31,481,1.5516
22.3143,474,1.529
22.3186,469,1.5129
22.3229,469,1.5129
22.3272,470,1.5161
22.3315,470,1.5161
22.3358,482,1.5548
22.3401,517,1.6677
22.3443,570,1.8387
22.3486,641,2.0677
22.3529,716,2.3097
22.3572,721,2.3258
22.3615,614,1.9806
22.3658,490,1.5806
22.3701,430,1.3871
22.3744,432,1.3935
22.3787,437,1.4097
22.383,414,1.3355
22.3873,401,1.2935
22.3916,418,1.3484
22.3959,455,1.4677
22.4002,487,1.571
22.4045,506,1.6323
22.4087,510,1.6452
22.413,505,1.629
22.4173,503,1.6226
22.4216,507,1.6355
22.4259,515,1.6613
22.4302,522,1.6839
22.4345,525,1.6935
22.4387,524,1.6903
22.443,523,1.6871
22.4473,522,1.6839
22.4516,521,1.6806
22.4559,522,1.6839
22.4602,515,1.6613
22.4645,510,1.6452
22.4688,506,1.6323
22.4731,500,1.6129
22.4774,491,1.5839
22.4816,485,1.5645
22.486,488,1.5742
22.4902,489,1.5774
22.4945,486,1.5677
22.4988,482,1.5548
22.5031,486,1.5677
22.5074,491,1.5839
22.5117,492,1.5871
22.516,492,1.5871
22.5203,492,1.5871
22.5246,495,1.5968
22.5289,502,1.6194
22.5331,507,1.6355
22.5375,510,1.6452
22.5417,504,1.6258
22.546,504,1.6258
22.5503,503,1.6226
22.5546,503,1.6226
22.5589,502,1.6194
22.5632,504,1.6258
22.5675,513,1.6548
22.5718,519,1.6742
22.576,516,1.6645
22.5803,513,1.6548
22.5846,509,1.6419
22.5889,503,1.6226
22.5932,496,1.6
22.5975,493,1.5903
22.6018,488,1.5742
22.6061,479,1.5452
22.6103,463,1.4935
22.6146,447,1.4419
22.619,434,1.4
22.6232,431,1.3903
22.6276,431,1.3903
22.6319,426,1.3742
22.6371,413,1.3323
22.6416,398,1.2839
22.6459,387,1.2484
22.6503,381,1.229
22.6546,381,1.229
22.6589,383,1.2355
22.6633,391,1.2613
22.6677,396,1.2774
22.672,402,1.2968
22.6763,408,1.3161
22.6807,406,1.3097
22.685,402,1.2968
22.6894,398,1.2839
22.6937,392,1.2645
22.698,395,1.2742
22.7034,408,1.3161
22.7078,414,1.3355
22.7121,419,1.3516
22.7165,422,1.3613
22.7208,419,1.3516
22.7252,415,1.3387
22.7295,412,1.329
22.7339,406,1.3097
22.7382,403,1.3
22.7425,399,1.2871
22.7468,396,1.2774
22.7511,393,1.2677
22.7554,389,1.2548
22.7597,390,1.2581
22.764,391,1.2613
22.7683,388,1.2516
22.7726,392,1.2645
22.7769,399,1.2871
22.7812,408,1.3161
22.7855,414,1.3355
22.7898,420,1.3548
22.7941,424,1.3677
22.7984,427,1.3774
22.8027,431,1.3903
22.8071,435,1.4032
22.8114,433,1.3968
22.8157,425,1.371
22.82,423,1.3645
22.8243,421,1.3581
22.8286,420,1.3548
22.8329,417,1.3452
22.8372,416,1.3419
22.8415,417,1.3452
22.8458,422,1.3613
22.8502,422,1.3613
22.8545,422,1.3613
22.8587,421,1.3581
22.8633,422,1.3613
22.8676,424,1.3677
22.8719,424,1.3677
22.8762,430,1.3871
22.8807,437,1.4097
22.885,443,1.429
22.8893,449,1.4484
22.8936,455,1.4677
22.8979,457,1.4742
22.9022,455,1.4677
22.9065,450,1.4516
22.9108,453,1.4613
22.9151,457,1.4742
22.9194,462,1.4903
22.9237,465,1.5
22.928,468,1.5097
22.933,473,1.5258
22.9377,475,1.5323
22.9421,472,1.5226
22.9464,465,1.5
22.9507,467,1.5065
22.955,470,1.5161
22.9593,472,1.5226
22.9636,472,1.5226
22.9679,468,1.5097
22.9722,479,1.5452
22.9765,499,1.6097
22.9808,515,1.6613
22.9851,526,1.6968
22.9894,533,1.7194
22.9938,540,1.7419
22.9981,547,1.7645
23.0024,552,1.7806
23.0072,551,1.7774
23.0116,543,1.7516
23.0159,536,1.729
23.0202,526,1.6968
23.0245,498,1.6065
23.0288,471,1.5194
23.0331,446,1.4387
23.0375,428,1.3806
23.0417,410,1.3226
23.046,397,1.2806
23.0503,392,1.2645
23.0547,397,1.2806
23.059,405,1.3065
23.0633,411,1.3258
23.0675,416,1.3419
23.0718,419,1.3516
23.0762,419,1.3516
23.0805,424,1.3677
23.0848,429,1.3839
23.0891,433,1.3968
23.0934,435,1.4032
23.0977,435,1.4032
23.102,433,1.3968
23.1063,430,1.3871
23.1106,424,1.3677
23.1149,435,1.4032
23.1192,474,1.529
23.1235,534,1.7226
23.1278,609,1.9645
23.1325,690,2.2258
23.1368,734,2.3677
23.1411,677,2.1839
23.1454,565,1.8226
23.1502,471,1.5194
23.1545,457,1.4742
23.1588,465,1.5
23.1631,445,1.4355
23.1674,424,1.3677
23.1717,429,1.3839
23.176,459,1.4806
23.1803,495,1.5968
23.1846,521,1.6806
23.1889,535,1.7258
23.1932,537,1.7323
23.1975,534,1.7226
23.2018,530,1.7097
23.2061,532,1.7161
23.2104,539,1.7387
23.2147,540,1.7419
23.219,540,1.7419
23.2233,540,1.7419
23.2276,547,1.7645
23.2319,562,1.8129
23.2362,573,1.8484
23.2406,570,1.8387
23.2449,555,1.7903
23.2492,540,1.7419
23.2535,525,1.6935
23.2578,517,1.6677
23.2621,510,1.6452
23.2664,508,1.6387
23.2707,512,1.6516
23.275,510,1.6452
23.2793,505,1.629
23.2836,501,1.6161
23.2879,501,1.6161
23.2922,502,1.6194
23.2965,505,1.629
23.3008,505,1.629
23.3051,504,1.6258
23.3094,503,1.6226
23.3137,504,1.6258
23.3181,505,1.629
23.3224,508,1.6387
23.3266,511,1.6484
23.3309,513,1.6548
23.3352,513,1.6548
23.3396,511,1.6484
23.3439,511,1.6484
23.3482,514,1.6581
23.3524,515,1.6613
23.3567,517,1.6677
23.3611,517,1.6677
23.3654,519,1.6742
23.3696,519,1.6742
23.3739,519,1.6742
23.3782,517,1.6677
23.3826,514,1.6581
23.3868,504,1.6258
23.3912,492,1.5871
23.3955,479,1.5452
23.3998,464,1.4968
23.4041,453,1.4613
23.4084,446,1.4387
23.4127,438,1.4129
23.417,432,1.3935
23.4213,427,1.3774
23.4256,426,1.3742
23.4299,426,1.3742
23.4345,425,1.371
23.4388,426,1.3742
23.4431,429,1.3839
23.4474,431,1.3903
23.4517,435,1.4032
23.4561,441,1.4226
23.4604,445,1.4355
23.4647,449,1.4484
23.4689,453,1.4613
23.4732,455,1.4677
23.4775,457,1.4742
23.4818,464,1.4968
23.486,479,1.5452
23.4903,487,1.571
23.4949,493,1.5903
23.4992,495,1.5968
23.5036,502,1.6194
23.5078,511,1.6484
23.5121,517,1.6677
23.5164,530,1.7097
23.5206,544,1.7548
23.5249,557,1.7968
23.5292,572,1.8452
23.5335,578,1.8645
23.5379,580,1.871
23.5423,582,1.8774
23.5467,583,1.8806
23.551,586,1.8903
23.5554,592,1.9097
23.5599,596,1.9226
23.5643,599,1.9323
23.5687,598,1.929
23.573,592,1.9097
23.5773,591,1.9065
23.5816,594,1.9161
23.586,596,1.9226
23.5904,594,1.9161
23.5947,590,1.9032
23.599,588,1.8968
23.6034,587,1.8935
23.6078,580,1.871
23.6121,568,1.8323
23.6164,564,1.8194
23.6214,557,1.7968
23.6257,554,1.7871
23.6301,553,1.7839
23.6344,556,1.7935
23.6388,547,1.7645
23.6432,537,1.7323
23.6475,529,1.7065
23.6518,522,1.6839
23.6561,513,1.6548
23.6604,503,1.6226
23.6647,500,1.6129
23.669,501,1.6161
23.6733,495,1.5968
23.6776,483,1.5581
23.6819,477,1.5387
23.6868,495,1.5968
23.6911,528,1.7032
23.6954,559,1.8032
23.6997,580,1.871
23.704,594,1.9161
23.7084,598,1.929
23.7127,602,1.9419
23.717,606,1.9548
23.7213,606,1.9548
23.7256,602,1.9419
23.7299,596,1.9226
23.7342,590,1.9032
23.7385,591,1.9065
23.7429,592,1.9097
23.7472,595,1.9194
23.7515,602,1.9419
23.7558,610,1.9677
23.7601,619,1.9968
23.7644,625,2.0161
23.7688,623,2.0097
23.7731,617,1.9903
23.7774,610,1.9677
23.7816,607,1.9581
23.7859,610,1.9677
23.7903,607,1.9581
23.7946,604,1.9484
23.7989,602,1.9419
23.8032,602,1.9419
23.8075,605,1.9516
23.8118,605,1.9516
23.8161,605,1.9516
23.8204,603,1.9452
23.8247,602,1.9419
23.829,602,1.9419
23.8334,598,1.929
23.838,593,1.9129
23.8424,591,1.9065
23.8466,593,1.9129
23.8509,595,1.9194
23.8552,599,1.9323
23.8595,604,1.9484
23.8638,605,1.9516
23.8681,603,1.9452
23.8723,601,1.9387
23.8766,599,1.9323
23.8808,602,1.9419
23.8851,604,1.9484
23.8894,603,1.9452
23.8936,598,1.929
23.8979,595,1.9194
23.9022,608,1.9613
23.9064,637,2.0548
23.9107,695,2.2419
23.9149,766,2.471
23.9192,840,2.7097
23.9234,845,2.7258
23.9277,744,2.4
23.9319,617,1.9903
23.9362,548,1.7677
23.9404,543,1.7516
23.9447,540,1.7419
23.9489,518,1.671
23.9532,504,1.6258
23.9574,515,1.6613
23.9617,548,1.7677
23.9659,584,1.8839
23.9702,606,1.9548
23.9745,614,1.9806
23.9787,615,1.9839
23.983,616,1.9871
23.9872,616,1.9871
23.9915,616,1.9871
23.9958,617,1.9903
24,616,1.9871
24.0043,616,1.9871
24.0086,612,1.9742
24.0128,608,1.9613
24.0171,607,1.9581
24.0214,605,1.9516
24.0256,604,1.9484
24.0299,602,1.9419
24.0341,600,1.9355
24.0385,603,1.9452
24.0428,604,1.9484
24.0472,605,1.9516
24.0515,609,1.9645
24.0558,610,1.9677
24.0601,611,1.971
24.0644,610,1.9677
24.0687,599,1.9323
24.073,590,1.9032
24.0773,588,1.8968
24.0816,589,1.9
24.0859,590,1.9032
24.0902,595,1.9194
24.0945,600,1.9355
24.0987,601,1.9387
24.103,605,1.9516
24.1074,609,1.9645
24.1117,616,1.9871
24.1159,618,1.9935
24.1202,621,2.0032
24.1245,621,2.0032
24.1288,622,2.0065
24.1331,624,2.0129
24.1374,623,2.0097
24.1417,618,1.9935
24.146,613,1.9774
24.1503,610,1.9677
24.1546,606,1.9548
24.1589,602,1.9419
24.1632,595,1.9194
24.1675,585,1.8871
24.1718,570,1.8387
24.1761,554,1.7871
24.1804,536,1.729
24.1847,523,1.6871
24.189,511,1.6484
24.1933,499,1.6097
24.1976,484,1.5613
24.2019,475,1.5323
24.2062,467,1.5065
24.2105,462,1.4903
24.2148,458,1.4774
24.2191,458,1.4774
24.2233,457,1.4742
24.2277,458,1.4774
24.2319,457,1.4742
24.2362,456,1.471
24.2405,458,1.4774
24.2448,460,1.4839
24.2491,464,1.4968
24.2533,466,1.5032
24.2577,468,1.5097
24.2619,469,1.5129
24.2662,469,1.5129
24.2705,470,1.5161
24.2748,474,1.529
24.2791,480,1.5484
24.2834,482,1.5548
24.2877,481,1.5516
24.292,480,1.5484
24.2963,479,1.5452
24.3006,477,1.5387
24.3048,478,1.5419
24.3091,481,1.5516
24.3134,480,1.5484
24.3177,481,1.5516
24.322,483,1.5581
24.3263,484,1.5613
24.3306,487,1.571
24.3349,486,1.5677
24.3392,482,1.5548
24.3435,475,1.5323
24.3478,469,1.5129
24.3521,460,1.4839
24.3564,453,1.4613
24.3607,454,1.4645
24.365,455,1.4677
24.3692,448,1.4452
24.3736,445,1.4355
24.3778,435,1.4032
24.3821,422,1.3613
24.3864,417,1.3452
24.3907,419,1.3516
24.395,421,1.3581
24.3993,425,1.371
24.4036,428,1.3806
24.4078,425,1.371
24.4122,419,1.3516
24.4164,420,1.3548
24.4207,418,1.3484
24.425,414,1.3355
24.4293,407,1.3129
24.4336,403,1.3
24.438,400,1.2903
24.4424,402,1.2968
24.4468,403,1.3
24.4511,404,1.3032
24.4554,408,1.3161
24.4597,407,1.3129
24.464,412,1.329
24.4683,419,1.3516
24.4726,424,1.3677
24.4769,429,1.3839
24.4811,431,1.3903
24.4854,429,1.3839
24.4897,433,1.3968
24.494,433,1.3968
24.4983,438,1.4129
24.5026,444,1.4323
24.5069,449,1.4484
24.5112,451,1.4548
24.5155,454,1.4645
24.5198,458,1.4774
24.5241,456,1.471
24.5283,462,1.4903
24.5326,468,1.5097
24.5369,462,1.4903
24.5412,455,1.4677
24.5455,450,1.4516
24.5498,458,1.4774
24.5541,467,1.5065
24.5584,473,1.5258
24.5626,470,1.5161
24.5669,465,1.5
24.5712,461,1.4871
24.5754,460,1.4839
24.5797,459,1.4806
24.584,460,1.4839
24.5882,461,1.4871
24.5925,459,1.4806
24.5968,455,1.4677
24.601,448,1.4452
24.6053,448,1.4452
24.6096,446,1.4387
24.6138,448,1.4452
24.6181,452,1.4581
24.6224,452,1.4581
24.6266,455,1.4677
24.6309,456,1.471
24.6351,451,1.4548
24.6394,446,1.4387
24.6436,444,1.4323
24.6479,440,1.4194
24.6522,443,1.429
24.6565,448,1.4452
24.6607,445,1.4355
24.665,441,1.4226
24.6692,449,1.4484
24.6735,478,1.5419
24.6778,517,1.6677
24.682,574,1.8516
24.6863,655,2.1129
24.6905,713,2.3
24.6948,667,2.1516
24.699,554,1.7871
24.7033,450,1.4516
24.7076,416,1.3419
24.7119,424,1.3677
24.7161,411,1.3258
24.7204,393,1.2677
24.7246,394,1.271
24.729,422,1.3613
24.7333,463,1.4935
24.7377,484,1.5613
24.7424,488,1.5742
24.7466,484,1.5613
24.7515,482,1.5548
24.7558,483,1.5581
24.76,486,1.5677
24.7643,491,1.5839
24.7685,501,1.6161
24.7728,510,1.6452
24.777,517,1.6677
24.7813,519,1.6742
24.7856,521,1.6806
24.7899,525,1.6935
24.7941,528,1.7032
24.7985,530,1.7097
24.8027,532,1.7161
24.807,530,1.7097
24.8113,533,1.7194
24.8156,535,1.7258
24.8198,532,1.7161
24.8241,530,1.7097
24.8284,528,1.7032
24.8326,529,1.7065
24.8369,526,1.6968
24.8411,515,1.6613
24.8454,506,1.6323
24.8496,499,1.6097
24.8539,498,1.6065
24.8581,508,1.6387
24.8624,523,1.6871
24.8666,534,1.7226
24.871,537,1.7323
24.8752,543,1.7516
24.8795,547,1.7645
24.8838,550,1.7742
24.8881,550,1.7742
24.8923,550,1.7742
24.8966,552,1.7806
24.9009,556,1.7935
24.9051,571,1.8419
24.9094,596,1.9226
24.9136,615,1.9839
24.9179,627,2.0226
24.9222,632,2.0387
24.9264,639,2.0613
24.9306,638,2.0581
24.9349,628,2.0258
24.9391,617,1.9903
24.9434,604,1.9484
24.9477,594,1.9161
24.952,578,1.8645
24.9563,565,1.8226
24.9606,563,1.8161
24.9649,562,1.8129
24.9693,556,1.7935
24.9735,547,1.7645
24.9778,537,1.7323
24.9821,524,1.6903
24.9864,512,1.6516
24.9907,510,1.6452
24.995,511,1.6484
24.9993,501,1.6161
25.0036,490,1.5806
25.0079,482,1.5548
25.0122,485,1.5645
25.0165,492,1.5871
25.0208,496,1.6
25.0252,494,1.5935
25.0298,493,1.5903
25.0343,497,1.6032
25.0389,504,1.6258
25.0435,510,1.6452
25.0481,509,1.6419
25.0525,509,1.6419
25.0568,513,1.6548
25.061,516,1.6645
25.0653,520,1.6774
25.0696,522,1.6839
25.0738,516,1.6645
25.0781,519,1.6742
25.0824,517,1.6677
25.0867,511,1.6484
25.0909,508,1.6387
25.0952,510,1.6452
25.0995,519,1.6742
25.1038,526,1.6968
25.1081,523,1.6871
25.1123,517,1.6677
25.1166,508,1.6387
25.1209,502,1.6194
25.1252,500,1.6129
25.1294,500,1.6129
25.1337,498,1.6065
25.138,496,1.6
25.1423,494,1.5935
25.1466,492,1.5871
25.1509,494,1.5935
25.1552,490,1.5806
25.1596,484,1.5613
25.1639,479,1.5452
25.1682,476,1.5355
25.1725,476,1.5355
25.1768,478,1.5419
25.1811,480,1.5484
25.1854,477,1.5387
25.1897,465,1.5
25.194,454,1.4645
25.1983,447,1.4419
25.2026,447,1.4419
25.207,455,1.4677
25.2113,463,1.4935
25.2157,466,1.5032
25.2201,466,1.5032
25.2244,465,1.5
25.2287,470,1.5161
25.233,474,1.529
25.2373,474,1.529
25.2416,475,1.5323
25.2459,473,1.5258
25.2502,470,1.5161
25.2545,472,1.5226
25.2591,472,1.5226
25.2635,474,1.529
25.2678,472,1.5226
25.2721,475,1.5323
25.2764,478,1.5419
25.2807,479,1.5452
25.285,479,1.5452
25.2893,484,1.5613
25.2936,489,1.5774
25.298,493,1.5903
25.3029,491,1.5839
25.3072,492,1.5871
25.3115,490,1.5806
25.3158,490,1.5806
25.3201,486,1.5677
25.3244,475,1.5323
25.3287,469,1.5129
25.333,471,1.5194
25.3375,468,1.5097
25.3419,465,1.5
25.3463,468,1.5097
25.3506,470,1.5161
25.3549,472,1.5226
25.3599,472,1.5226
25.3644,467,1.5065
25.3687,461,1.4871
25.373,461,1.4871
25.3773,463,1.4935
25.3816,462,1.4903
25.3859,459,1.4806
25.3902,454,1.4645
25.3945,450,1.4516
25.3988,450,1.4516
25.4031,456,1.471
25.4075,466,1.5032
25.4118,472,1.5226
25.4161,475,1.5323
25.4203,478,1.5419
25.4246,473,1.5258
25.429,473,1.5258
25.4333,488,1.5742
25.4376,516,1.6645
25.4419,570,1.8387
25.4462,644,2.0774
25.4505,712,2.2968
25.4548,703,2.2677
25.4591,600,1.9355
25.4634,482,1.5548
25.4678,426,1.3742
25.472,429,1.3839
25.4763,420,1.3548
25.4806,392,1.2645
25.4849,382,1.2323
25.4892,405,1.3065
25.4935,445,1.4355
25.4978,481,1.5516
25.5021,494,1.5935
25.5065,495,1.5968
25.5108,496,1.6
25.5151,496,1.6
25.5194,493,1.5903
25.5237,491,1.5839
25.528,490,1.5806
25.5323,489,1.5774
25.5366,486,1.5677
25.5409,488,1.5742
25.5452,490,1.5806
25.5495,491,1.5839
25.5538,490,1.5806
25.5581,495,1.5968
25.5624,498,1.6065
25.5667,500,1.6129
25.571,506,1.6323
25.5753,508,1.6387
25.5796,505,1.629
25.5839,507,1.6355
25.5882,506,1.6323
25.5925,507,1.6355
25.5968,512,1.6516
25.6012,520,1.6774
25.6056,527,1.7
25.6099,533,1.7194
25.6142,537,1.7323
25.6185,539,1.7387
25.6228,545,1.7581
25.6271,549,1.771
25.6315,549,1.771
25.6359,550,1.7742
25.6403,552,1.7806
25.6447,556,1.7935
25.6491,562,1.8129
25.6534,569,1.8355
25.6577,575,1.8548
25.662,578,1.8645
25.6667,584,1.8839
25.671,587,1.8935
25.6753,588,1.8968
25.6797,589,1.9
25.684,587,1.8935
25.6883,585,1.8871
25.6926,580,1.871
25.697,574,1.8516
25.7014,562,1.8129
25.7057,549,1.771
25.71,536,1.729
25.7142,526,1.6968
25.7185,516,1.6645
25.7227,506,1.6323
25.727,497,1.6032
25.7313,484,1.5613
25.7356,475,1.5323
25.7398,469,1.5129
25.7441,465,1.5
25.7484,460,1.4839
25.7527,454,1.4645
25.7571,451,1.4548
25.7614,452,1.4581
25.7657,458,1.4774
25.77,462,1.4903
25.7743,461,1.4871
25.7786,458,1.4774
25.7829,456,1.471
25.7872,458,1.4774
25.7915,459,1.4806
25.7958,465,1.5
25.8001,470,1.5161
25.8044,473,1.5258
25.8087,477,1.5387
25.813,478,1.5419
25.8174,480,1.5484
25.8217,480,1.5484
25.826,486,1.5677
25.8303,492,1.5871
25.8346,494,1.5935
25.8389,492,1.5871
25.8432,491,1.5839
25.8475,491,1.5839
25.8518,487,1.571
25.8561,484,1.5613
25.8604,483,1.5581
25.8647,482,1.5548
25.869,482,1.5548
25.8733,485,1.5645
25.8777,481,1.5516
25.882,480,1.5484
25.8862,480,1.5484
25.8905,478,1.5419
25.8953,479,1.5452
25.8996,482,1.5548
25.9039,481,1.5516
25.9083,481,1.5516
25.9126,482,1.5548
25.9169,482,1.5548
25.9212,486,1.5677
25.9255,487,1.571
25.9297,486,1.5677
25.9341,483,1.5581
25.9384,485,1.5645
25.9427,489,1.5774
25.947,493,1.5903
25.9513,493,1.5903
25.9556,489,1.5774
25.9599,481,1.5516
25.9642,475,1.5323
25.9685,474,1.529
25.9728,477,1.5387
25.9772,483,1.5581
25.9815,488,1.5742
25.9857,494,1.5935
25.99,497,1.6032
25.9943,495,1.5968
25.9987,502,1.6194
26.003,513,1.6548
26.0073,522,1.6839
26.0116,531,1.7129
26.0159,538,1.7355
26.0202,542,1.7484
26.0245,544,1.7548
26.0288,546,1.7613
26.0331,548,1.7677
26.0374,549,1.771
26.0417,547,1.7645
26.046,546,1.7613
26.0503,554,1.7871
26.0546,558,1.8
26.0589,561,1.8097
26.0632,556,1.7935
26.0675,548,1.7677
26.0718,539,1.7387
26.0761,521,1.6806
26.0804,511,1.6484
26.0847,504,1.6258
26.089,497,1.6032
26.0933,499,1.6097
26.0976,501,1.6161
26.1019,497,1.6032
26.1062,497,1.6032
26.1106,496,1.6
26.1149,496,1.6
26.1192,500,1.6129
26.1235,503,1.6226
26.1278,500,1.6129
26.1321,499,1.6097
26.1364,497,1.6032
26.1407,496,1.6
26.145,495,1.5968
26.1493,491,1.5839
26.1536,488,1.5742
26.1579,486,1.5677
26.1622,485,1.5645
26.1665,484,1.5613
26.1708,484,1.5613
26.1751,481,1.5516
26.1794,472,1.5226
26.1837,478,1.5419
26.188,500,1.6129
26.1923,541,1.7452
26.1966,610,1.9677
26.2016,715,2.3065
26.206,757,2.4419
26.2103,685,2.2097
26.2146,565,1.8226
26.2189,487,1.571
26.2232,484,1.5613
26.2275,494,1.5935
26.2318,468,1.5097
26.2363,441,1.4226
26.2408,444,1.4323
26.2453,474,1.529
26.2496,507,1.6355
26.2539,526,1.6968
26.2582,530,1.7097
26.263,534,1.7226
26.2673,537,1.7323
26.2716,539,1.7387
26.2759,541,1.7452
26.2802,544,1.7548
26.2846,549,1.771
26.2889,550,1.7742
26.2932,551,1.7774
26.2975,551,1.7774
26.3018,552,1.7806
26.3061,553,1.7839
26.3105,559,1.8032
26.3148,571,1.8419
26.319,582,1.8774
26.3233,588,1.8968
26.3277,583,1.8806
26.332,568,1.8323
26.3363,557,1.7968
26.3407,548,1.7677
26.3451,545,1.7581
26.3494,543,1.7516
26.3537,541,1.7452
26.358,540,1.7419
26.3623,540,1.7419
26.3666,540,1.7419
26.3709,542,1.7484
26.3752,544,1.7548
26.3795,547,1.7645
26.3838,547,1.7645
26.3881,549,1.771
26.3924,549,1.771
26.3967,547,1.7645
26.401,551,1.7774
26.4053,554,1.7871
26.4097,551,1.7774
26.414,549,1.771
26.4183,548,1.7677
26.4226,546,1.7613
26.4271,545,1.7581
26.4314,542,1.7484
26.4357,537,1.7323
26.4399,533,1.7194
26.4442,529,1.7065
26.4486,523,1.6871
26.4529,515,1.6613
26.4573,504,1.6258
26.4616,495,1.5968
26.4659,482,1.5548
26.4702,472,1.5226
26.4745,463,1.4935
26.4788,455,1.4677
26.4831,449,1.4484
26.4879,443,1.429
26.4922,437,1.4097
26.4966,433,1.3968
26.501,431,1.3903
26.5053,429,1.3839
26.5096,432,1.3935
26.5139,431,1.3903
26.5182,431,1.3903
26.5225,435,1.4032
26.5268,439,1.4161
26.5312,445,1.4355
26.5356,451,1.4548
26.54,457,1.4742
26.5444,468,1.5097
26.5499,477,1.5387
26.5542,484,1.5613
26.5585,488,1.5742
26.5628,492,1.5871
26.5671,495,1.5968
26.5713,500,1.6129
26.5756,504,1.6258
26.5798,507,1.6355
26.5841,509,1.6419
26.5884,512,1.6516
26.5926,513,1.6548
26.597,514,1.6581
26.6012,517,1.6677
26.6055,517,1.6677
26.6097,517,1.6677
26.614,515,1.6613
26.6183,513,1.6548
26.6225,512,1.6516
26.6268,510,1.6452
26.6311,512,1.6516
26.6353,514,1.6581
26.6396,512,1.6516
26.6438,510,1.6452
26.6481,507,1.6355
26.6524,504,1.6258
26.6566,501,1.6161
26.6609,498,1.6065
26.6652,494,1.5935
26.6695,491,1.5839
26.6738,489,1.5774
26.6781,485,1.5645
26.6824,481,1.5516
26.6867,478,1.5419
26.691,476,1.5355
26.6953,474,1.529
26.6996,469,1.5129
26.7039,466,1.5032
26.7082,466,1.5032
26.7125,466,1.5032
26.7168,466,1.5032
26.721,465,1.5
26.7253,465,1.5
26.7296,468,1.5097
26.7339,470,1.5161
26.7382,467,1.5065
