time_s,adc_raw,voltage
0.0000,363,1.1710
0.0044,312,1.0065
0.0087,255,0.8226
0.0131,252,0.8129
0.0174,268,0.8645
0.0217,248,0.8000
0.0261,216,0.6968
0.0305,246,0.7935
0.0348,317,1.0226
0.0393,381,1.2290
0.0437,393,1.2677
0.0482,398,1.2839
0.0529,447,1.4419
0.0573,508,1.6387
0.0616,547,1.7645
0.0660,554,1.7871
0.0703,569,1.8355
0.0746,620,2.0000
0.0790,654,2.1097
0.0850,600,1.9355
0.0895,557,1.7968
0.0940,572,1.8452
0.0987,587,1.8935
0.1032,547,1.7645
0.1076,493,1.5903
0.1121,510,1.6452
0.1165,558,1.8000
0.1216,543,1.7516
0.1264,481,1.5516
0.1310,472,1.5226
0.1354,517,1.6677
0.1397,532,1.7161
0.1439,485,1.5645
0.1481,462,1.4903
0.1523,487,1.5710
0.1565,519,1.6742
0.1606,502,1.6194
0.1648,447,1.4419
0.1690,412,1.3290
0.1732,441,1.4226
0.1773,492,1.5871
0.1815,487,1.5710
0.1857,446,1.4387
0.1899,443,1.4290
0.1941,499,1.6097
0.1982,536,1.7290
0.2024,522,1.6839
0.2066,481,1.5516
0.2108,471,1.5194
0.2150,518,1.6710
0.2191,572,1.8452
0.2233,558,1.8000
0.2275,528,1.7032
0.2317,541,1.7452
0.2359,584,1.8839
0.2401,593,1.9129
0.2443,549,1.7710
0.2487,513,1.6548
0.2530,543,1.7516
0.2573,586,1.8903
0.2615,585,1.8871
0.2658,553,1.7839
0.2701,554,1.7871
0.2745,603,1.9452
0.2788,641,2.0677
0.2830,627,2.0226
0.2873,587,1.8935
0.2916,578,1.8645
0.2958,611,1.9710
0.3000,621,2.0032
0.3045,550,1.7742
0.3087,479,1.5452
0.3129,479,1.5452
0.3170,512,1.6516
0.3212,515,1.6613
0.3253,471,1.5194
0.3295,438,1.4129
0.3337,458,1.4774
0.3378,495,1.5968
0.3420,473,1.5258
0.3462,425,1.3710
0.3503,425,1.3710
0.3545,474,1.5290
0.3586,501,1.6161
0.3628,468,1.5097
0.3670,412,1.3290
0.3711,402,1.2968
0.3753,448,1.4452
0.3795,469,1.5129
0.3836,435,1.4032
0.3878,407,1.3129
0.3920,426,1.3742
0.3961,484,1.5613
0.4003,509,1.6419
0.4044,470,1.5161
0.4086,442,1.4258
0.4128,473,1.5258
0.4169,521,1.6806
0.4211,511,1.6484
0.4252,439,1.4161
0.4295,390,1.2581
0.4337,412,1.3290
0.4380,454,1.4645
0.4421,456,1.4710
0.4464,426,1.3742
0.4505,427,1.3774
0.4547,491,1.5839
0.4588,537,1.7323
0.4630,537,1.7323
0.4672,539,1.7387
0.4713,563,1.8161
0.4755,613,1.9774
0.4797,612,1.9742
0.4838,540,1.7419
0.4880,463,1.4935
0.4921,472,1.5226
0.4963,541,1.7452
0.5005,564,1.8194
0.5046,543,1.7516
0.5088,539,1.7387
0.5130,581,1.8742
0.5172,625,2.0161
0.5213,614,1.9806
0.5255,541,1.7452
0.5297,498,1.6065
0.5338,523,1.6871
0.5380,533,1.7194
0.5421,476,1.5355
0.5463,386,1.2452
0.5505,337,1.0871
0.5546,353,1.1387
0.5588,367,1.1839
0.5630,310,1.0000
0.5671,232,0.7484
0.5713,214,0.6903
0.5755,247,0.7968
0.5796,252,0.8129
0.5838,202,0.6516
0.5879,149,0.4806
0.5921,158,0.5097
0.5962,190,0.6129
0.6004,181,0.5839
0.6046,111,0.3581
0.6087,82,0.2645
0.6129,145,0.4677
0.6171,255,0.8226
0.6212,317,1.0226
0.6254,329,1.0613
0.6296,351,1.1323
0.6337,421,1.3581
0.6379,489,1.5774
0.6421,484,1.5613
0.6462,444,1.4323
0.6504,449,1.4484
0.6546,509,1.6419
0.6587,556,1.7935
0.6629,543,1.7516
0.6670,501,1.6161
0.6712,521,1.6806
0.6754,604,1.9484
0.6795,663,2.1387
0.6837,659,2.1258
0.6878,661,2.1323
0.6920,700,2.2581
0.6962,751,2.4226
0.7003,782,2.5226
0.7045,774,2.4968
0.7087,782,2.5226
0.7128,852,2.7484
0.7170,941,3.0355
0.7212,980,3.1613
0.7253,967,3.1194
0.7295,971,3.1323
0.7337,999,3.2226
0.7378,1001,3.2290
0.7420,1003,3.2355
0.7461,1002,3.2323
0.7503,1003,3.2355
0.7544,1005,3.2419
0.7586,1003,3.2355
0.7628,1004,3.2387
0.7669,1006,3.2452
0.7711,1007,3.2484
0.7752,1004,3.2387
0.7795,1007,3.2484
0.7836,1004,3.2387
0.7879,1003,3.2355
0.7921,1002,3.2323
0.7964,1001,3.2290
0.8006,963,3.1065
0.8048,801,2.5839
0.8091,684,2.2065
0.8133,671,2.1645
0.8175,697,2.2484
0.8219,689,2.2226
0.8261,651,2.1000
0.8304,630,2.0323
0.8346,666,2.1484
0.8388,700,2.2581
0.8431,683,2.2032
0.8473,645,2.0806
0.8515,648,2.0903
0.8558,680,2.1935
0.8600,686,2.2129
0.8642,631,2.0355
0.8685,604,1.9484
0.8727,653,2.1065
0.8770,736,2.3742
0.8813,758,2.4452
0.8856,717,2.3129
0.8898,708,2.2839
0.8941,766,2.4710
0.8985,827,2.6677
0.9028,830,2.6774
0.9071,811,2.6161
0.9113,822,2.6516
0.9156,851,2.7452
0.9199,838,2.7032
0.9242,790,2.5484
0.9285,754,2.4323
0.9328,787,2.5387
0.9371,824,2.6581
0.9414,811,2.6161
0.9456,758,2.4452
0.9499,743,2.3968
0.9542,791,2.5516
0.9585,838,2.7032
0.9628,815,2.6290
0.9670,755,2.4355
0.9713,743,2.3968
0.9756,785,2.5323
0.9799,799,2.5774
0.9843,741,2.3903
0.9885,689,2.2226
0.9928,724,2.3355
0.9971,803,2.5903
1.0014,859,2.7710
1.0057,856,2.7613
1.0100,848,2.7355
1.0143,886,2.8581
1.0186,921,2.9710
1.0229,916,2.9548
1.0272,915,2.9516
1.0316,992,3.2000
1.0360,1001,3.2290
1.0404,1003,3.2355
1.0447,1003,3.2355
1.0490,1003,3.2355
1.0533,1002,3.2323
1.0576,1003,3.2355
1.0619,1004,3.2387
1.0661,1004,3.2387
1.0704,1005,3.2419
1.0747,1003,3.2355
1.0790,1002,3.2323
1.0833,1005,3.2419
1.0877,1004,3.2387
1.0920,1002,3.2323
1.0962,1004,3.2387
1.1005,1003,3.2355
1.1048,1002,3.2323
1.1091,1001,3.2290
1.1133,1002,3.2323
1.1176,998,3.2194
1.1218,993,3.2032
1.1261,905,2.9194
1.1304,802,2.5871
1.1346,739,2.3839
1.1389,648,2.0903
1.1432,488,1.5742
1.1475,318,1.0258
1.1519,227,0.7323
1.1562,204,0.6581
1.1604,183,0.5903
1.1647,101,0.3258
1.1690,44,0.1419
1.1732,71,0.2290
1.1775,128,0.4129
1.1818,107,0.3452
1.1861,57,0.1839
1.1904,73,0.2355
1.1946,158,0.5097
1.1989,230,0.7419
1.2032,240,0.7742
1.2075,193,0.6226
1.2118,153,0.4935
1.2161,129,0.4161
1.2203,67,0.2161
1.2246,0,0.0000
1.2289,0,0.0000
1.2332,0,0.0000
1.2374,0,0.0000
1.2419,0,0.0000
1.2462,0,0.0000
1.2505,0,0.0000
1.2548,0,0.0000
1.2591,0,0.0000
1.2634,0,0.0000
1.2677,0,0.0000
1.2720,0,0.0000
1.2763,0,0.0000
1.2805,0,0.0000
1.2848,0,0.0000
1.2891,0,0.0000
1.2935,0,0.0000
1.2978,0,0.0000
1.3021,0,0.0000
1.3064,0,0.0000
1.3107,0,0.0000
1.3150,0,0.0000
1.3193,0,0.0000
1.3236,0,0.0000
1.3279,0,0.0000
1.3325,0,0.0000
1.3369,0,0.0000
1.3413,0,0.0000
1.3456,0,0.0000
1.3499,0,0.0000
1.3542,0,0.0000
1.3587,0,0.0000
1.3630,0,0.0000
1.3672,0,0.0000
1.3715,0,0.0000
1.3758,0,0.0000
1.3801,0,0.0000
1.3844,0,0.0000
1.3887,0,0.0000
1.3930,0,0.0000
1.3973,0,0.0000
1.4016,0,0.0000
1.4060,0,0.0000
1.4103,0,0.0000
1.4146,2,0.0065
1.4189,50,0.1613
1.4232,51,0.1645
1.4275,15,0.0484
1.4318,24,0.0774
1.4361,87,0.2806
1.4404,117,0.3774
1.4447,83,0.2677
1.4489,74,0.2387
1.4533,139,0.4484
1.4576,225,0.7258
1.4618,239,0.7710
1.4661,191,0.6161
1.4704,181,0.5839
1.4747,223,0.7194
1.4790,247,0.7968
1.4833,211,0.6806
1.4876,153,0.4935
1.4919,147,0.4742
1.4962,201,0.6484
1.5005,207,0.6677
1.5048,152,0.4903
1.5091,104,0.3355
1.5135,139,0.4484
1.5178,209,0.6742
1.5222,217,0.7000
1.5265,173,0.5581
1.5308,172,0.5548
1.5352,229,0.7387
1.5395,277,0.8935
1.5438,258,0.8323
1.5481,216,0.6968
1.5525,231,0.7452
1.5568,284,0.9161
1.5612,294,0.9484
1.5655,256,0.8258
1.5698,237,0.7645
1.5741,292,0.9419
1.5785,361,1.1645
1.5828,355,1.1452
1.5871,316,1.0194
1.5914,358,1.1548
1.5958,539,1.7387
1.6002,759,2.4484
1.6045,720,2.3226
1.6088,458,1.4774
1.6132,269,0.8677
1.6175,241,0.7774
1.6218,274,0.8839
1.6261,263,0.8484
1.6304,250,0.8065
1.6347,274,0.8839
1.6390,305,0.9839
1.6433,300,0.9677
1.6475,257,0.8290
1.6518,241,0.7774
1.6562,280,0.9032
1.6604,308,0.9935
1.6647,301,0.9710
1.6690,298,0.9613
1.6733,331,1.0677
1.6776,376,1.2129
1.6819,377,1.2161
1.6862,336,1.0839
1.6905,307,0.9903
1.6948,330,1.0645
1.6991,381,1.2290
1.7034,385,1.2419
1.7077,341,1.1000
1.7121,333,1.0742
1.7164,383,1.2355
1.7208,427,1.3774
1.7251,402,1.2968
1.7294,366,1.1806
1.7338,366,1.1806
1.7381,392,1.2645
1.7424,396,1.2774
1.7468,359,1.1581
1.7511,343,1.1065
1.7554,374,1.2065
1.7598,415,1.3387
1.7641,400,1.2903
1.7684,356,1.1484
1.7727,351,1.1323
1.7771,379,1.2226
1.7814,392,1.2645
1.7857,369,1.1903
1.7901,375,1.2097
1.7944,428,1.3806
1.7987,488,1.5742
1.8031,480,1.5484
1.8074,424,1.3677
1.8117,396,1.2774
1.8160,439,1.4161
1.8203,490,1.5806
1.8246,478,1.5419
1.8289,440,1.4194
1.8332,450,1.4516
1.8375,502,1.6194
1.8418,529,1.7065
1.8461,487,1.5710
1.8504,455,1.4677
1.8553,483,1.5581
1.8597,516,1.6645
1.8640,511,1.6484
1.8683,501,1.6161
1.8726,522,1.6839
1.8769,582,1.8774
1.8811,615,1.9839
1.8855,591,1.9065
1.8897,558,1.8000
1.8940,576,1.8581
1.8983,612,1.9742
1.9027,599,1.9323
1.9070,571,1.8419
1.9113,590,1.9032
1.9156,649,2.0935
1.9199,713,2.3000
1.9242,707,2.2806
1.9286,645,2.0806
1.9331,616,1.9871
1.9375,623,2.0097
1.9418,608,1.9613
1.9462,546,1.7613
1.9504,495,1.5968
1.9547,515,1.6613
1.9591,569,1.8355
1.9634,573,1.8484
1.9678,545,1.7581
1.9720,555,1.7903
1.9763,615,1.9839
1.9806,617,1.9903
1.9849,578,1.8645
1.9892,543,1.7516
1.9935,569,1.8355
1.9978,598,1.9290
2.0021,588,1.8968
2.0064,525,1.6935
2.0107,485,1.5645
2.0150,505,1.6290
2.0193,535,1.7258
2.0236,519,1.6742
2.0279,471,1.5194
2.0322,473,1.5258
2.0365,536,1.7290
2.0408,574,1.8516
2.0451,558,1.8000
2.0494,527,1.7000
2.0537,539,1.7387
2.0580,584,1.8839
2.0623,591,1.9065
2.0666,553,1.7839
2.0708,542,1.7484
2.0751,589,1.9000
2.0794,629,2.0290
2.0838,604,1.9484
2.0881,568,1.8323
2.0924,572,1.8452
2.0967,623,2.0097
2.1009,650,2.0968
2.1052,608,1.9613
2.1096,572,1.8452
2.1139,601,1.9387
2.1183,644,2.0774
2.1226,634,2.0452
2.1269,579,1.8677
2.1313,558,1.8000
2.1356,587,1.8935
2.1399,616,1.9871
2.1443,593,1.9129
2.1486,569,1.8355
2.1529,605,1.9516
2.1573,670,2.1613
2.1616,695,2.2419
2.1660,662,2.1355
2.1703,625,2.0161
2.1746,667,2.1516
2.1789,714,2.3032
2.1833,697,2.2484
2.1876,641,2.0677
2.1919,626,2.0194
2.1963,659,2.1258
2.2006,666,2.1484
2.2049,617,1.9903
2.2093,568,1.8323
2.2136,565,1.8226
2.2178,600,1.9355
2.2221,590,1.9032
2.2264,530,1.7097
2.2308,513,1.6548
2.2351,559,1.8032
2.2395,589,1.9000
2.2437,550,1.7742
2.2481,496,1.6000
2.2524,506,1.6323
2.2567,566,1.8258
2.2610,590,1.9032
2.2653,551,1.7774
2.2696,511,1.6484
2.2739,530,1.7097
2.2782,574,1.8516
2.2824,565,1.8226
2.2867,503,1.6226
2.2910,487,1.5710
2.2953,542,1.7484
2.2996,595,1.9194
2.3039,576,1.8581
2.3082,540,1.7419
2.3125,603,1.9452
2.3169,797,2.5710
2.3211,983,3.1710
2.3254,867,2.7968
2.3297,591,1.9065
2.3340,459,1.4806
2.3383,474,1.5290
2.3426,500,1.6129
2.3469,479,1.5452
2.3512,469,1.5129
2.3555,513,1.6548
2.3598,535,1.7258
2.3641,503,1.6226
2.3684,461,1.4871
2.3727,482,1.5548
2.3770,553,1.7839
2.3813,569,1.8355
2.3855,512,1.6516
2.3898,468,1.5097
2.3941,510,1.6452
2.3984,556,1.7935
2.4027,543,1.7516
2.4070,494,1.5935
2.4113,488,1.5742
2.4157,540,1.7419
2.4200,573,1.8484
2.4244,551,1.7774
2.4287,526,1.6968
2.4330,549,1.7710
2.4373,592,1.9097
2.4417,584,1.8839
2.4460,525,1.6935
2.4504,504,1.6258
2.4547,567,1.8290
2.4590,616,1.9871
2.4634,592,1.9097
2.4677,533,1.7194
2.4720,532,1.7161
2.4763,586,1.8903
2.4807,613,1.9774
2.4850,571,1.8419
2.4893,524,1.6903
2.4937,536,1.7290
2.4980,590,1.9032
2.5023,591,1.9065
2.5068,536,1.7290
2.5111,536,1.7290
2.5154,609,1.9645
2.5197,634,2.0452
2.5240,582,1.8774
2.5283,525,1.6935
2.5326,536,1.7290
2.5369,611,1.9710
2.5412,645,2.0806
2.5455,609,1.9645
2.5498,570,1.8387
2.5541,587,1.8935
2.5584,609,1.9645
2.5627,596,1.9226
2.5670,536,1.7290
2.5712,515,1.6613
2.5755,556,1.7935
2.5798,595,1.9194
2.5841,567,1.8290
2.5884,518,1.6710
2.5927,517,1.6677
2.5970,565,1.8226
2.6013,570,1.8387
2.6056,512,1.6516
2.6099,478,1.5419
2.6142,510,1.6452
2.6185,554,1.7871
2.6229,546,1.7613
2.6272,480,1.5484
2.6315,460,1.4839
2.6359,517,1.6677
2.6402,552,1.7806
2.6445,511,1.6484
2.6488,471,1.5194
2.6532,498,1.6065
2.6575,549,1.7710
2.6618,545,1.7581
2.6662,486,1.5677
2.6705,464,1.4968
2.6748,510,1.6452
2.6792,554,1.7871
2.6835,529,1.7065
2.6878,473,1.5258
2.6921,490,1.5806
2.6965,550,1.7742
2.7008,559,1.8032
2.7051,509,1.6419
2.7095,486,1.5677
2.7138,517,1.6677
2.7181,577,1.8613
2.7224,573,1.8484
2.7267,521,1.6806
2.7310,508,1.6387
2.7353,642,2.0710
2.7396,838,2.7032
2.7439,907,2.9258
2.7482,865,2.7903
2.7525,854,2.7548
2.7568,902,2.9097
2.7610,908,2.9290
2.7654,832,2.6839
2.7696,781,2.5194
2.7739,803,2.5903
2.7782,845,2.7258
2.7825,825,2.6613
2.7868,755,2.4355
2.7911,723,2.3323
2.7954,758,2.4452
2.7997,778,2.5097
2.8040,731,2.3581
2.8083,680,2.1935
2.8126,703,2.2677
2.8169,760,2.4516
2.8212,759,2.4484
2.8256,692,2.2323
2.8299,656,2.1161
2.8344,689,2.2226
2.8389,723,2.3323
2.8432,684,2.2065
2.8476,618,1.9935
2.8519,595,1.9194
2.8563,637,2.0548
2.8606,643,2.0742
2.8650,604,1.9484
2.8693,566,1.8258
2.8736,582,1.8774
2.8780,619,1.9968
2.8823,615,1.9839
2.8866,552,1.7806
2.8910,536,1.7290
2.8954,586,1.8903
2.8997,628,2.0258
2.9040,596,1.9226
2.9083,561,1.8097
2.9128,573,1.8484
2.9171,622,2.0065
2.9214,631,2.0355
2.9257,547,1.7645
2.9300,484,1.5613
2.9343,494,1.5935
2.9386,531,1.7129
2.9429,524,1.6903
2.9472,482,1.5548
2.9515,481,1.5516
2.9558,539,1.7387
2.9601,555,1.7903
2.9644,496,1.6000
2.9687,441,1.4226
2.9730,459,1.4806
2.9773,525,1.6935
2.9815,551,1.7774
2.9858,502,1.6194
2.9901,462,1.4903
2.9944,494,1.5935
2.9987,530,1.7097
3.0030,512,1.6516
3.0073,470,1.5161
3.0116,476,1.5355
3.0160,540,1.7419
3.0203,580,1.8710
3.0247,533,1.7194
3.0290,475,1.5323
3.0333,487,1.5710
3.0376,550,1.7742
3.0420,564,1.8194
3.0463,514,1.6581
3.0506,493,1.5903
3.0550,529,1.7065
3.0593,566,1.8258
3.0636,537,1.7323
3.0679,473,1.5258
3.0723,459,1.4806
3.0766,501,1.6161
3.0810,507,1.6355
3.0853,446,1.4387
3.0896,397,1.2806
3.0939,419,1.3516
3.0983,464,1.4968
3.1026,455,1.4677
3.1069,401,1.2935
3.1113,398,1.2839
3.1156,462,1.4903
3.1199,492,1.5871
3.1242,456,1.4710
3.1285,401,1.2935
3.1330,418,1.3484
3.1374,486,1.5677
3.1417,495,1.5968
3.1461,426,1.3742
3.1504,387,1.2484
3.1547,422,1.3613
3.1590,479,1.5452
3.1633,466,1.5032
3.1676,407,1.3129
3.1719,402,1.2968
3.1762,474,1.5290
3.1804,539,1.7387
3.1847,589,1.9000
3.1890,724,2.3355
3.1933,910,2.9355
3.1977,887,2.8613
3.2020,657,2.1194
3.2064,424,1.3677
3.2107,357,1.1516
3.2150,426,1.3742
3.2193,492,1.5871
3.2236,466,1.5032
3.2279,401,1.2935
3.2322,395,1.2742
3.2365,452,1.4581
3.2408,469,1.5129
3.2451,402,1.2968
3.2494,359,1.1581
3.2537,393,1.2677
3.2580,456,1.4710
3.2623,458,1.4774
3.2666,407,1.3129
3.2708,384,1.2387
3.2751,422,1.3613
3.2794,467,1.5065
3.2837,446,1.4387
3.2880,401,1.2935
3.2923,412,1.3290
3.2966,483,1.5581
3.3009,526,1.6968
3.3052,492,1.5871
3.3095,457,1.4742
3.3138,483,1.5581
3.3181,536,1.7290
3.3224,530,1.7097
3.3268,467,1.5065
3.3311,442,1.4258
3.3354,490,1.5806
3.3398,524,1.6903
3.3441,493,1.5903
3.3484,452,1.4581
3.3527,479,1.5452
3.3571,542,1.7484
3.3614,553,1.7839
3.3657,502,1.6194
3.3701,470,1.5161
3.3744,498,1.6065
3.3787,543,1.7516
3.3831,529,1.7065
3.3874,467,1.5065
3.3917,461,1.4871
3.3961,533,1.7194
3.4004,566,1.8258
3.4047,506,1.6323
3.4091,455,1.4677
3.4134,489,1.5774
3.4177,563,1.8161
3.4221,574,1.8516
3.4264,526,1.6968
3.4307,502,1.6194
3.4351,563,1.8161
3.4394,611,1.9710
3.4437,604,1.9484
3.4481,563,1.8161
3.4524,558,1.8000
3.4567,619,1.9968
3.4610,636,2.0516
3.4654,583,1.8806
3.4697,532,1.7161
3.4740,561,1.8097
3.4784,636,2.0516
3.4827,644,2.0774
3.4870,600,1.9355
3.4914,573,1.8484
3.4957,629,2.0290
3.5000,663,2.1387
3.5043,615,1.9839
3.5087,560,1.8065
3.5130,566,1.8258
3.5174,617,1.9903
3.5218,632,2.0387
3.5262,571,1.8419
3.5304,544,1.7548
3.5347,597,1.9258
3.5390,649,2.0935
3.5433,627,2.0226
3.5476,557,1.7968
3.5519,525,1.6935
3.5562,563,1.8161
3.5605,598,1.9290
3.5648,563,1.8161
3.5691,507,1.6355
3.5734,511,1.6484
3.5777,550,1.7742
3.5820,499,1.6097
3.5863,359,1.1581
3.5906,278,0.8968
3.5949,305,0.9839
3.5991,346,1.1161
3.6034,324,1.0452
3.6077,241,0.7774
3.6120,205,0.6613
3.6163,251,0.8097
3.6206,281,0.9065
3.6249,242,0.7806
3.6293,199,0.6419
3.6336,222,0.7161
3.6379,287,0.9258
3.6423,304,0.9806
3.6466,266,0.8581
3.6509,250,0.8065
3.6552,290,0.9355
3.6596,317,1.0226
3.6639,284,0.9161
3.6682,233,0.7516
3.6726,247,0.7968
3.6769,307,0.9903
3.6812,333,1.0742
3.6855,294,0.9484
3.6899,252,0.8129
3.6942,289,0.9323
3.6985,353,1.1387
3.7029,367,1.1839
3.7072,331,1.0677
3.7115,315,1.0161
3.7159,357,1.1516
3.7209,390,1.2581
3.7253,348,1.1226
3.7296,306,0.9871
3.7340,327,1.0548
3.7384,389,1.2548
3.7427,395,1.2742
3.7470,328,1.0581
3.7513,298,0.9613
3.7556,340,1.0968
3.7599,377,1.2161
3.7642,348,1.1226
3.7685,304,0.9806
3.7728,319,1.0290
3.7771,379,1.2226
3.7814,402,1.2968
3.7857,357,1.1516
3.7900,323,1.0419
3.7943,367,1.1839
3.7986,443,1.4290
3.8029,449,1.4484
3.8071,392,1.2645
3.8115,374,1.2065
3.8159,435,1.4032
3.8202,487,1.5710
3.8245,468,1.5097
3.8288,414,1.3355
3.8331,412,1.3290
3.8374,456,1.4710
3.8417,466,1.5032
3.8460,411,1.3258
3.8502,368,1.1871
3.8546,406,1.3097
3.8588,455,1.4677
3.8631,439,1.4161
3.8674,381,1.2290
3.8717,376,1.2129
3.8760,439,1.4161
3.8803,482,1.5548
3.8846,453,1.4613
3.8888,410,1.3226
3.8931,421,1.3581
3.8974,468,1.5097
3.9017,483,1.5581
3.9060,448,1.4452
3.9108,430,1.3871
3.9151,471,1.5194
3.9193,510,1.6452
3.9236,477,1.5387
3.9279,414,1.3355
3.9322,425,1.3710
3.9365,496,1.6000
3.9407,534,1.7226
3.9450,489,1.5774
3.9493,421,1.3581
3.9535,418,1.3484
3.9578,471,1.5194
3.9621,505,1.6290
3.9664,488,1.5742
3.9706,485,1.5645
3.9749,540,1.7419
3.9792,596,1.9226
3.9835,587,1.8935
3.9878,544,1.7548
3.9921,539,1.7387
3.9970,594,1.9161
4.0012,608,1.9613
4.0055,552,1.7806
4.0098,508,1.6387
4.0140,528,1.7032
4.0183,579,1.8677
4.0226,596,1.9226
4.0269,564,1.8194
4.0313,549,1.7710
4.0357,600,1.9355
4.0401,639,2.0613
4.0443,608,1.9613
4.0486,558,1.8000
4.0528,557,1.7968
4.0571,606,1.9548
4.0614,639,2.0613
4.0657,607,1.9581
4.0699,604,1.9484
4.0746,708,2.2839
4.0795,796,2.5677
4.0838,799,2.5774
4.0881,746,2.4065
4.0923,730,2.3548
4.0966,778,2.5097
4.1009,817,2.6355
4.1052,783,2.5258
4.1094,750,2.4194
4.1137,782,2.5226
4.1179,837,2.7000
4.1223,848,2.7355
4.1266,791,2.5516
4.1309,752,2.4258
4.1352,778,2.5097
4.1395,817,2.6355
4.1438,782,2.5226
4.1481,701,2.2613
4.1524,690,2.2258
4.1567,746,2.4065
4.1610,777,2.5065
4.1653,729,2.3516
4.1696,670,2.1613
4.1739,659,2.1258
4.1782,694,2.2387
4.1826,682,2.2000
4.1869,616,1.9871
4.1912,583,1.8806
4.1954,622,2.0065
4.1997,663,2.1387
4.2041,642,2.0710
4.2084,597,1.9258
4.2127,607,1.9581
4.2169,652,2.1032
4.2212,668,2.1548
4.2260,608,1.9613
4.2303,567,1.8290
4.2346,607,1.9581
4.2394,667,2.1516
4.2437,645,2.0806
4.2480,587,1.8935
4.2523,573,1.8484
4.2566,612,1.9742
4.2609,643,2.0742
4.2652,609,1.9645
4.2695,552,1.7806
4.2738,565,1.8226
4.2781,626,2.0194
4.2824,629,2.0290
4.2867,566,1.8258
4.2910,539,1.7387
4.2953,592,1.9097
4.2996,648,2.0903
4.3039,631,2.0355
4.3082,591,1.9065
4.3125,600,1.9355
4.3168,643,2.0742
4.3211,643,2.0742
4.3255,590,1.9032
4.3298,542,1.7484
4.3341,564,1.8194
4.3384,615,1.9839
4.3427,604,1.9484
4.3470,543,1.7516
4.3513,514,1.6581
4.3556,559,1.8032
4.3599,583,1.8806
4.3642,543,1.7516
4.3685,492,1.5871
4.3728,491,1.5839
4.3771,529,1.7065
4.3814,547,1.7645
4.3863,500,1.6129
4.3906,468,1.5097
4.3949,497,1.6032
4.3992,548,1.7677
4.4035,531,1.7129
4.4078,462,1.4903
4.4121,427,1.3774
4.4164,465,1.5000
4.4207,505,1.6290
4.4250,513,1.6548
4.4293,551,1.7774
4.4336,735,2.3710
4.4379,972,3.1355
4.4422,938,3.0258
4.4465,659,2.1258
4.4508,456,1.4710
4.4551,424,1.3677
4.4594,472,1.5226
4.4638,469,1.5129
4.4682,418,1.3484
4.4725,425,1.3710
4.4768,489,1.5774
4.4811,519,1.6742
4.4854,474,1.5290
4.4897,421,1.3581
4.4940,438,1.4129
4.4983,494,1.5935
4.5026,502,1.6194
4.5069,461,1.4871
4.5112,448,1.4452
4.5155,490,1.5806
4.5198,524,1.6903
4.5241,500,1.6129
4.5284,448,1.4452
4.5327,463,1.4935
4.5370,518,1.6710
4.5413,524,1.6903
4.5456,475,1.5323
4.5499,438,1.4129
4.5542,480,1.5484
4.5585,546,1.7613
4.5628,545,1.7581
4.5671,481,1.5516
4.5714,443,1.4290
4.5757,472,1.5226
4.5800,494,1.5935
4.5843,455,1.4677
4.5887,391,1.2613
4.5930,383,1.2355
4.5973,431,1.3903
4.6016,450,1.4516
4.6058,407,1.3129
4.6108,374,1.2065
4.6151,408,1.3161
4.6194,456,1.4710
4.6236,459,1.4806
4.6280,433,1.3968
4.6331,452,1.4581
4.6374,515,1.6613
4.6418,544,1.7548
4.6461,505,1.6290
4.6504,469,1.5129
4.6547,506,1.6323
4.6590,550,1.7742
4.6633,549,1.7710
4.6676,513,1.6548
4.6726,503,1.6226
4.6769,551,1.7774
4.6812,578,1.8645
4.6855,548,1.7677
4.6898,515,1.6613
4.6941,517,1.6677
4.6984,553,1.7839
4.7027,558,1.8000
4.7070,501,1.6161
4.7113,468,1.5097
4.7156,507,1.6355
4.7199,526,1.6968
4.7242,484,1.5613
4.7285,422,1.3613
4.7328,410,1.3226
4.7372,458,1.4774
4.7415,480,1.5484
4.7458,444,1.4323
4.7501,414,1.3355
4.7544,441,1.4226
4.7587,491,1.5839
4.7630,480,1.5484
4.7672,414,1.3355
4.7716,371,1.1968
4.7759,405,1.3065
4.7802,452,1.4581
4.7845,432,1.3935
4.7888,375,1.2097
4.7931,375,1.2097
4.7974,427,1.3774
4.8017,462,1.4903
4.8061,440,1.4194
4.8103,417,1.3452
4.8147,445,1.4355
4.8190,488,1.5742
4.8233,464,1.4968
4.8276,386,1.2452
4.8319,359,1.1581
4.8362,407,1.3129
4.8405,438,1.4129
4.8448,402,1.2968
4.8491,364,1.1742
4.8534,379,1.2226
4.8578,442,1.4258
4.8621,479,1.5452
4.8664,433,1.3968
4.8706,383,1.2355
4.8749,400,1.2903
4.8793,450,1.4516
4.8836,464,1.4968
4.8879,427,1.3774
4.8922,432,1.3935
4.8965,498,1.6065
4.9008,545,1.7581
4.9051,519,1.6742
4.9094,462,1.4903
4.9137,460,1.4839
4.9180,511,1.6484
4.9223,532,1.7161
4.9267,489,1.5774
4.9310,463,1.4935
4.9355,519,1.6742
4.9399,583,1.8806
4.9442,582,1.8774
4.9485,531,1.7129
4.9528,512,1.6516
4.9571,553,1.7839
4.9615,568,1.8323
4.9658,517,1.6677
4.9700,464,1.4968
4.9743,478,1.5419
4.9793,536,1.7290
4.9836,548,1.7677
4.9879,513,1.6548
4.9922,497,1.6032
4.9965,527,1.7000
5.0008,545,1.7581
5.0051,518,1.6710
5.0096,401,1.2935
5.0141,286,0.9226
5.0186,268,0.8645
5.0231,264,0.8516
5.0277,213,0.6871
5.0321,206,0.6645
5.0366,281,0.9065
5.0409,354,1.1419
5.0451,358,1.1548
5.0494,341,1.1000
5.0537,367,1.1839
5.0579,446,1.4387
5.0622,510,1.6452
5.0665,500,1.6129
5.0708,494,1.5935
5.0750,529,1.7065
5.0793,571,1.8419
5.0836,570,1.8387
5.0879,525,1.6935
5.0922,498,1.6065
5.0964,520,1.6774
5.1007,556,1.7935
5.1050,543,1.7516
5.1093,505,1.6290
5.1135,516,1.6645
5.1180,562,1.8129
5.1223,581,1.8742
5.1266,552,1.7806
5.1309,526,1.6968
5.1352,560,1.8065
5.1396,599,1.9323
5.1439,594,1.9161
5.1482,546,1.7613
5.1525,534,1.7226
5.1568,576,1.8581
5.1610,599,1.9323
5.1654,563,1.8161
5.1697,515,1.6613
5.1740,510,1.6452
5.1782,534,1.7226
5.1826,532,1.7161
5.1869,492,1.5871
5.1912,488,1.5742
5.1955,539,1.7387
5.1998,594,1.9161
5.2041,577,1.8613
5.2084,508,1.6387
5.2127,499,1.6097
5.2170,554,1.7871
5.2213,596,1.9226
5.2256,581,1.8742
5.2299,553,1.7839
5.2342,570,1.8387
5.2385,623,2.0097
5.2428,635,2.0484
5.2472,599,1.9323
5.2515,588,1.8968
5.2557,614,1.9806
5.2600,636,2.0516
5.2643,605,1.9516
5.2687,551,1.7774
5.2729,550,1.7742
5.2772,588,1.8968
5.2815,593,1.9129
5.2859,528,1.7032
5.2902,458,1.4774
5.2945,443,1.4290
5.2988,459,1.4806
5.3031,437,1.4097
5.3074,370,1.1935
5.3117,344,1.1097
5.3160,367,1.1839
5.3203,387,1.2484
5.3246,370,1.1935
5.3289,329,1.0613
5.3334,340,1.0968
5.3376,393,1.2677
5.3419,401,1.2935
5.3462,358,1.1548
5.3505,325,1.0484
5.3548,346,1.1161
5.3590,396,1.2774
5.3633,406,1.3097
5.3675,372,1.2000
5.3718,366,1.1806
5.3760,414,1.3355
5.3803,472,1.5226
5.3846,478,1.5419
5.3889,444,1.4323
5.3931,464,1.4968
5.3974,531,1.7129
5.4016,577,1.8613
5.4060,592,1.9097
5.4102,691,2.2290
5.4145,909,2.9323
5.4187,992,3.2000
5.4230,801,2.5839
5.4272,537,1.7323
5.4315,423,1.3645
5.4358,468,1.5097
5.4401,539,1.7387
5.4444,574,1.8516
5.4487,563,1.8161
5.4531,578,1.8645
5.4573,624,2.0129
5.4616,638,2.0581
5.4659,593,1.9129
5.4703,534,1.7226
5.4746,531,1.7129
5.4788,572,1.8452
5.4831,587,1.8935
5.4874,559,1.8032
5.4918,533,1.7194
5.4961,557,1.7968
5.5004,586,1.8903
5.5047,557,1.7968
5.5090,499,1.6097
5.5133,475,1.5323
5.5176,507,1.6355
5.5219,527,1.7000
5.5263,512,1.6516
5.5308,498,1.6065
5.5352,535,1.7258
5.5397,581,1.8742
5.5441,584,1.8839
5.5484,550,1.7742
5.5527,539,1.7387
5.5570,571,1.8419
5.5613,579,1.8677
5.5656,538,1.7355
5.5699,492,1.5871
5.5742,490,1.5806
5.5785,526,1.6968
5.5828,536,1.7290
5.5875,496,1.6000
5.5919,474,1.5290
5.5962,508,1.6387
5.6005,545,1.7581
5.6048,530,1.7097
5.6091,481,1.5516
5.6134,472,1.5226
5.6177,519,1.6742
5.6220,544,1.7548
5.6263,508,1.6387
5.6306,465,1.5000
5.6349,484,1.5613
5.6392,531,1.7129
5.6435,535,1.7258
5.6478,498,1.6065
5.6521,489,1.5774
5.6564,530,1.7097
5.6607,559,1.8032
5.6650,547,1.7645
5.6693,509,1.6419
5.6736,519,1.6742
5.6779,572,1.8452
5.6822,590,1.9032
5.6865,553,1.7839
5.6908,523,1.6871
5.6951,537,1.7323
5.6994,569,1.8355
5.7037,580,1.8710
5.7080,549,1.7710
5.7123,535,1.7258
5.7166,565,1.8226
5.7209,591,1.9065
5.7252,567,1.8290
5.7295,524,1.6903
5.7338,529,1.7065
5.7381,563,1.8161
5.7424,573,1.8484
5.7467,527,1.7000
5.7510,498,1.6065
5.7553,526,1.6968
5.7596,567,1.8290
5.7638,561,1.8097
5.7681,521,1.6806
5.7724,498,1.6065
5.7767,539,1.7387
5.7810,578,1.8645
5.7853,557,1.7968
5.7896,513,1.6548
5.7939,512,1.6516
5.7982,543,1.7516
5.8025,560,1.8065
5.8068,523,1.6871
5.8111,478,1.5419
5.8154,485,1.5645
5.8197,515,1.6613
5.8240,503,1.6226
5.8283,478,1.5419
5.8328,496,1.6000
5.8372,553,1.7839
5.8416,594,1.9161
5.8460,569,1.8355
5.8503,537,1.7323
5.8546,516,1.6645
5.8590,534,1.7226
5.8633,528,1.7032
5.8676,497,1.6032
5.8719,477,1.5387
5.8762,492,1.5871
5.8805,523,1.6871
5.8848,534,1.7226
5.8891,504,1.6258
5.8934,479,1.5452
5.8977,530,1.7097
5.9020,585,1.8871
5.9063,585,1.8871
5.9106,576,1.8581
5.9149,605,1.9516
5.9192,651,2.1000
5.9235,657,2.1194
5.9278,625,2.0161
5.9321,623,2.0097
5.9368,661,2.1323
5.9411,679,2.1903
5.9454,648,2.0903
5.9497,604,1.9484
5.9540,601,1.9387
5.9583,627,2.0226
5.9627,637,2.0548
5.9669,620,2.0000
5.9712,636,2.0516
5.9755,734,2.3677
5.9798,824,2.6581
5.9841,849,2.7387
5.9884,794,2.5613
5.9927,734,2.3677
5.9971,682,2.2000
6.0014,619,1.9968
6.0057,536,1.7290
6.0100,496,1.6000
6.0143,551,1.7774
6.0189,642,2.0710
6.0232,681,2.1968
6.0275,681,2.1968
6.0318,666,2.1484
6.0361,652,2.1032
6.0404,621,2.0032
6.0447,532,1.7161
6.0490,419,1.3516
6.0533,366,1.1806
6.0576,356,1.1484
6.0619,302,0.9742
6.0662,193,0.6226
6.0705,113,0.3645
6.0748,119,0.3839
6.0791,165,0.5323
6.0834,181,0.5839
6.0877,173,0.5581
6.0920,186,0.6000
6.0963,239,0.7710
6.1009,285,0.9194
6.1052,297,0.9581
6.1095,323,1.0419
6.1138,402,1.2968
6.1181,516,1.6645
6.1224,578,1.8645
6.1268,592,1.9097
6.1310,609,1.9645
6.1353,642,2.0710
6.1397,672,2.1677
6.1440,648,2.0903
6.1483,590,1.9032
6.1527,531,1.7129
6.1570,472,1.5226
6.1613,352,1.1355
6.1656,182,0.5871
6.1699,36,0.1161
6.1742,0,0.0000
6.1785,0,0.0000
6.1832,0,0.0000
6.1876,0,0.0000
6.1919,0,0.0000
6.1962,0,0.0000
6.2005,0,0.0000
6.2048,0,0.0000
6.2091,0,0.0000
6.2134,0,0.0000
6.2177,0,0.0000
6.2220,29,0.0935
6.2263,39,0.1258
6.2306,43,0.1387
6.2349,77,0.2484
6.2392,131,0.4226
6.2435,151,0.4871
6.2478,134,0.4323
6.2522,135,0.4355
6.2564,184,0.5935
6.2607,231,0.7452
6.2652,241,0.7774
6.2695,247,0.7968
6.2738,291,0.9387
6.2781,356,1.1484
6.2824,400,1.2903
6.2867,404,1.3032
6.2910,412,1.3290
6.2953,450,1.4516
6.2996,501,1.6161
6.3039,517,1.6677
6.3082,511,1.6484
6.3125,514,1.6581
6.3168,554,1.7871
6.3211,592,1.9097
6.3254,584,1.8839
6.3297,558,1.8000
6.3340,568,1.8323
6.3383,622,2.0065
6.3426,666,2.1484
6.3470,647,2.0871
6.3513,624,2.0129
6.3556,662,2.1355
6.3599,708,2.2839
6.3641,707,2.2806
6.3684,695,2.2419
6.3728,712,2.2968
6.3771,762,2.4581
6.3814,784,2.5290
6.3856,779,2.5129
6.3899,793,2.5581
6.3943,831,2.6806
6.3986,863,2.7839
6.4029,875,2.8226
6.4072,873,2.8161
6.4121,916,2.9548
6.4164,996,3.2129
6.4207,998,3.2194
6.4249,998,3.2194
6.4293,996,3.2129
6.4338,967,3.1194
6.4382,875,2.8226
6.4427,764,2.4645
6.4470,682,2.2000
6.4513,646,2.0839
6.4555,685,2.2097
6.4598,792,2.5548
6.4641,888,2.8645
6.4684,904,2.9161
6.4726,859,2.7710
6.4769,824,2.6581
6.4812,904,2.9161
6.4855,990,3.1935
6.4898,878,2.8323
6.4941,654,2.1097
6.4984,521,1.6806
6.5027,399,1.2871
6.5069,313,1.0097
6.5112,290,0.9355
6.5155,299,0.9645
6.5197,307,0.9903
6.5240,283,0.9129
6.5283,180,0.5806
6.5326,166,0.5355
6.5368,265,0.8548
6.5411,315,1.0161
6.5454,287,0.9258
6.5497,225,0.7258
6.5540,209,0.6742
6.5583,232,0.7484
6.5626,228,0.7355
6.5670,212,0.6839
6.5713,185,0.5968
6.5756,188,0.6065
6.5799,220,0.7097
6.5842,232,0.7484
6.5885,220,0.7097
6.5928,229,0.7387
6.5971,256,0.8258
6.6014,266,0.8581
6.6057,256,0.8258
6.6100,255,0.8226
6.6142,288,0.9290
6.6185,331,1.0677
6.6229,350,1.1290
6.6271,335,1.0806
6.6314,317,1.0226
6.6357,340,1.0968
6.6400,360,1.1613
6.6444,351,1.1323
6.6487,334,1.0774
6.6529,354,1.1419
6.6572,406,1.3097
6.6615,439,1.4161
6.6657,450,1.4516
6.6700,447,1.4419
6.6743,463,1.4935
6.6785,500,1.6129
6.6828,528,1.7032
6.6871,513,1.6548
6.6914,497,1.6032
6.6956,506,1.6323
6.6999,520,1.6774
6.7042,522,1.6839
6.7085,499,1.6097
6.7127,501,1.6161
6.7170,514,1.6581
6.7212,528,1.7032
6.7255,524,1.6903
6.7298,483,1.5581
6.7357,484,1.5613
6.7402,530,1.7097
6.7445,555,1.7903
6.7489,547,1.7645
6.7533,523,1.6871
6.7576,498,1.6065
6.7619,457,1.4742
6.7662,399,1.2871
6.7705,348,1.1226
6.7747,324,1.0452
6.7790,329,1.0613
6.7834,326,1.0516
6.7877,309,0.9968
6.7919,305,0.9839
6.7962,318,1.0258
6.8010,344,1.1097
6.8053,358,1.1548
6.8096,343,1.1065
6.8139,323,1.0419
6.8182,310,1.0000
6.8225,289,0.9323
6.8268,255,0.8226
6.8311,251,0.8097
6.8354,254,0.8194
6.8397,270,0.8710
6.8440,276,0.8903
6.8483,236,0.7613
6.8526,202,0.6516
6.8569,184,0.5935
6.8612,181,0.5839
6.8656,167,0.5387
6.8699,169,0.5452
6.8741,206,0.6645
6.8785,242,0.7806
6.8828,246,0.7935
6.8871,209,0.6742
6.8914,208,0.6710
6.8957,257,0.8290
6.9000,330,1.0645
6.9043,386,1.2452
6.9086,409,1.3194
6.9129,431,1.3903
6.9172,448,1.4452
6.9215,490,1.5806
6.9258,518,1.6710
6.9301,524,1.6903
6.9344,537,1.7323
6.9387,553,1.7839
6.9430,556,1.7935
6.9473,545,1.7581
6.9517,556,1.7935
6.9560,585,1.8871
6.9603,618,1.9935
6.9646,633,2.0419
6.9689,637,2.0548
6.9732,620,2.0000
6.9775,601,1.9387
6.9818,591,1.9065
6.9861,588,1.8968
6.9904,560,1.8065
6.9947,533,1.7194
6.9990,534,1.7226
7.0033,531,1.7129
7.0077,512,1.6516
7.0120,491,1.5839
7.0163,483,1.5581
7.0205,496,1.6000
7.0254,508,1.6387
7.0297,524,1.6903
7.0340,547,1.7645
7.0383,578,1.8645
7.0426,622,2.0065
7.0470,644,2.0774
7.0516,625,2.0161
7.0561,620,2.0000
7.0604,608,1.9613
7.0647,597,1.9258
7.0690,576,1.8581
7.0733,536,1.7290
7.0776,506,1.6323
7.0818,483,1.5581
7.0866,459,1.4806
7.0909,437,1.4097
7.0952,407,1.3129
7.0995,402,1.2968
7.1038,423,1.3645
7.1082,433,1.3968
7.1125,428,1.3806
7.1168,419,1.3516
7.1211,408,1.3161
7.1254,421,1.3581
7.1297,477,1.5387
7.1340,530,1.7097
7.1383,564,1.8194
7.1425,553,1.7839
7.1468,538,1.7355
7.1512,542,1.7484
7.1555,571,1.8419
7.1598,616,1.9871
7.1641,633,2.0419
7.1684,649,2.0935
7.1727,671,2.1645
7.1770,692,2.2323
7.1813,703,2.2677
7.1856,748,2.4129
7.1899,790,2.5484
7.1942,774,2.4968
7.1985,747,2.4097
7.2028,729,2.3516
7.2071,706,2.2774
7.2115,684,2.2065
7.2158,673,2.1710
7.2200,674,2.1742
7.2243,675,2.1774
7.2286,640,2.0645
7.2330,585,1.8871
7.2373,543,1.7516
7.2415,534,1.7226
7.2458,547,1.7645
7.2502,543,1.7516
7.2545,501,1.6161
7.2588,446,1.4387
7.2631,426,1.3742
7.2674,423,1.3645
7.2717,397,1.2806
7.2760,358,1.1548
7.2803,340,1.0968
7.2845,379,1.2226
7.2888,406,1.3097
7.2931,384,1.2387
7.2973,337,1.0871
7.3016,317,1.0226
7.3060,339,1.0935
7.3103,362,1.1677
7.3146,354,1.1419
7.3188,360,1.1613
7.3231,385,1.2419
7.3274,416,1.3419
7.3345,432,1.3935
7.3389,449,1.4484
7.3432,450,1.4516
7.3480,438,1.4129
7.3523,413,1.3323
7.3566,401,1.2935
7.3609,421,1.3581
7.3652,446,1.4387
7.3695,454,1.4645
7.3738,455,1.4677
7.3781,460,1.4839
7.3824,458,1.4774
7.3867,446,1.4387
7.3910,424,1.3677
7.3954,395,1.2742
7.3998,401,1.2935
7.4041,429,1.3839
7.4084,441,1.4226
7.4127,431,1.3903
7.4171,408,1.3161
7.4214,377,1.2161
7.4257,373,1.2032
7.4300,375,1.2097
7.4343,372,1.2000
7.4386,379,1.2226
7.4429,394,1.2710
7.4471,424,1.3677
7.4515,436,1.4065
7.4558,419,1.3516
7.4604,387,1.2484
7.4648,415,1.3387
7.4691,552,1.7806
7.4734,767,2.4742
7.4777,834,2.6903
7.4820,641,2.0677
7.4863,426,1.3742
7.4907,320,1.0323
7.4950,317,1.0226
7.4992,347,1.1194
7.5035,350,1.1290
7.5078,329,1.0613
7.5120,328,1.0581
7.5163,344,1.1097
7.5206,357,1.1516
7.5248,355,1.1452
7.5291,345,1.1129
7.5334,352,1.1355
7.5376,362,1.1677
7.5419,378,1.2194
7.5462,404,1.3032
7.5505,463,1.4935
7.5548,480,1.5484
7.5591,456,1.4710
7.5634,445,1.4355
7.5676,456,1.4710
7.5719,462,1.4903
7.5762,446,1.4387
7.5805,426,1.3742
7.5847,413,1.3323
7.5890,411,1.3258
7.5933,427,1.3774
7.5975,454,1.4645
7.6018,430,1.3871
7.6061,388,1.2516
7.6103,356,1.1484
7.6146,347,1.1194
7.6188,361,1.1645
7.6231,393,1.2677
7.6274,404,1.3032
7.6318,388,1.2516
7.6367,369,1.1903
7.6412,384,1.2387
7.6455,424,1.3677
7.6498,447,1.4419
7.6541,438,1.4129
7.6584,420,1.3548
7.6627,422,1.3613
7.6670,451,1.4548
7.6713,478,1.5419
7.6756,490,1.5806
7.6799,514,1.6581
7.6842,521,1.6806
7.6885,494,1.5935
7.6927,477,1.5387
7.6970,458,1.4774
7.7013,465,1.5000
7.7056,485,1.5645
7.7099,489,1.5774
7.7143,480,1.5484
7.7186,475,1.5323
7.7229,500,1.6129
7.7272,502,1.6194
7.7315,475,1.5323
7.7358,460,1.4839
7.7401,474,1.5290
7.7444,488,1.5742
7.7487,467,1.5065
7.7530,461,1.4871
7.7573,492,1.5871
7.7616,534,1.7226
7.7660,547,1.7645
7.7704,515,1.6613
7.7747,480,1.5484
7.7790,526,1.6968
7.7834,574,1.8516
7.7877,598,1.9290
7.7920,612,1.9742
7.7964,619,1.9968
7.8007,641,2.0677
7.8050,659,2.1258
7.8094,664,2.1419
7.8137,697,2.2484
7.8181,745,2.4032
7.8224,773,2.4935
7.8267,760,2.4516
7.8311,743,2.3968
7.8354,751,2.4226
7.8397,773,2.4935
7.8440,769,2.4806
7.8484,712,2.2968
7.8528,671,2.1645
7.8572,675,2.1774
7.8615,668,2.1548
7.8658,659,2.1258
7.8701,654,2.1097
7.8744,628,2.0258
7.8786,581,1.8742
7.8829,534,1.7226
7.8872,490,1.5806
7.8915,489,1.5774
7.8958,496,1.6000
7.9001,506,1.6323
7.9044,482,1.5548
7.9087,465,1.5000
7.9130,460,1.4839
7.9173,458,1.4774
7.9216,459,1.4806
7.9259,450,1.4516
7.9302,425,1.3710
7.9345,426,1.3742
7.9388,456,1.4710
7.9431,482,1.5548
7.9474,494,1.5935
7.9517,516,1.6645
7.9560,555,1.7903
7.9604,580,1.8710
7.9647,541,1.7452
7.9690,461,1.4871
7.9734,432,1.3935
7.9777,456,1.4710
7.9820,476,1.5355
7.9864,447,1.4419
7.9907,422,1.3613
7.9950,427,1.3774
7.9994,447,1.4419
8.0037,463,1.4935
8.0080,466,1.5032
8.0124,455,1.4677
8.0167,475,1.5323
8.0210,502,1.6194
8.0254,494,1.5935
8.0297,492,1.5871
8.0341,520,1.6774
8.0384,537,1.7323
8.0427,529,1.7065
8.0470,512,1.6516
8.0514,510,1.6452
8.0557,532,1.7161
8.0600,562,1.8129
8.0643,577,1.8613
8.0686,584,1.8839
8.0729,601,1.9387
8.0772,648,2.0903
8.0815,671,2.1645
8.0858,641,2.0677
8.0901,610,1.9677
8.0944,610,1.9677
8.0986,649,2.0935
8.1029,665,2.1452
8.1072,609,1.9645
8.1116,530,1.7097
8.1159,469,1.5129
8.1202,446,1.4387
8.1245,446,1.4387
8.1288,420,1.3548
8.1331,398,1.2839
8.1374,391,1.2613
8.1417,406,1.3097
8.1460,434,1.4000
8.1503,452,1.4581
8.1547,489,1.5774
8.1590,528,1.7032
8.1633,543,1.7516
8.1677,530,1.7097
8.1720,503,1.6226
8.1764,498,1.6065
8.1807,500,1.6129
8.1850,464,1.4968
8.1893,416,1.3419
8.1937,422,1.3613
8.1980,468,1.5097
8.2023,511,1.6484
8.2067,508,1.6387
8.2111,490,1.5806
8.2154,486,1.5677
8.2197,496,1.6000
8.2241,498,1.6065
8.2284,496,1.6000
8.2328,498,1.6065
8.2376,507,1.6355
8.2420,508,1.6387
8.2464,504,1.6258
8.2507,496,1.6000
8.2552,493,1.5903
8.2595,508,1.6387
8.2639,501,1.6161
8.2682,467,1.5065
8.2725,432,1.3935
8.2768,433,1.3968
8.2811,466,1.5032
8.2854,480,1.5484
8.2899,447,1.4419
8.2943,447,1.4419
8.2985,497,1.6032
8.3028,542,1.7484
8.3071,531,1.7129
8.3115,481,1.5516
8.3158,455,1.4677
8.3202,456,1.4710
8.3245,438,1.4129
8.3288,387,1.2484
8.3331,362,1.1677
8.3374,404,1.3032
8.3417,448,1.4452
8.3460,438,1.4129
8.3503,410,1.3226
8.3546,397,1.2806
8.3590,393,1.2677
8.3633,387,1.2484
8.3677,368,1.1871
8.3722,344,1.1097
8.3766,354,1.1419
8.3809,384,1.2387
8.3852,388,1.2516
8.3895,376,1.2129
8.3938,380,1.2258
8.3981,402,1.2968
8.4024,390,1.2581
8.4067,368,1.1871
8.4110,375,1.2097
8.4153,428,1.3806
8.4196,477,1.5387
8.4239,500,1.6129
8.4282,487,1.5710
8.4325,467,1.5065
8.4368,483,1.5581
8.4412,510,1.6452
8.4455,508,1.6387
8.4497,477,1.5387
8.4543,459,1.4806
8.4586,464,1.4968
8.4630,454,1.4645
8.4673,410,1.3226
8.4716,370,1.1935
8.4759,384,1.2387
8.4802,414,1.3355
8.4845,428,1.3806
8.4888,465,1.5000
8.4931,623,2.0097
8.4974,826,2.6645
8.5017,772,2.4903
8.5060,508,1.6387
8.5103,284,0.9161
8.5147,240,0.7742
8.5190,318,1.0258
8.5233,372,1.2000
8.5276,346,1.1161
8.5319,300,0.9677
8.5373,302,0.9742
8.5417,328,1.0581
8.5460,324,1.0452
8.5503,299,0.9645
8.5545,288,0.9290
8.5588,325,1.0484
8.5631,354,1.1419
8.5674,349,1.1258
8.5716,349,1.1258
8.5759,395,1.2742
8.5801,442,1.4258
8.5844,438,1.4129
8.5887,402,1.2968
8.5929,379,1.2226
8.5972,386,1.2452
8.6014,411,1.3258
8.6057,418,1.3484
8.6099,414,1.3355
8.6142,439,1.4161
8.6184,458,1.4774
8.6227,459,1.4806
8.6270,430,1.3871
8.6313,394,1.2710
8.6355,394,1.2710
8.6398,413,1.3323
8.6441,405,1.3065
8.6483,389,1.2548
8.6526,397,1.2806
8.6568,424,1.3677
8.6611,464,1.4968
8.6655,480,1.5484
8.6698,470,1.5161
8.6741,457,1.4742
8.6784,475,1.5323
8.6827,487,1.5710
8.6870,480,1.5484
8.6913,476,1.5355
8.6955,484,1.5613
8.6998,504,1.6258
8.7041,502,1.6194
8.7084,476,1.5355
8.7127,455,1.4677
8.7170,474,1.5290
8.7213,507,1.6355
8.7256,511,1.6484
8.7299,455,1.4677
8.7342,407,1.3129
8.7385,418,1.3484
8.7428,433,1.3968
8.7471,406,1.3097
8.7513,383,1.2355
8.7557,385,1.2419
8.7600,408,1.3161
8.7643,412,1.3290
8.7686,376,1.2129
8.7729,366,1.1806
8.7772,395,1.2742
8.7815,435,1.4032
8.7858,444,1.4323
8.7900,424,1.3677
8.7944,436,1.4065
8.7986,488,1.5742
8.8029,518,1.6710
8.8072,512,1.6516
8.8116,508,1.6387
8.8159,568,1.8323
8.8202,635,2.0484
8.8245,637,2.0548
8.8288,600,1.9355
8.8331,578,1.8645
8.8374,607,1.9581
8.8417,632,2.0387
8.8460,610,1.9677
8.8503,556,1.7935
8.8546,546,1.7613
8.8589,571,1.8419
8.8632,588,1.8968
8.8675,564,1.8194
8.8717,525,1.6935
8.8761,523,1.6871
8.8804,545,1.7581
8.8846,553,1.7839
8.8889,524,1.6903
8.8932,504,1.6258
8.8975,514,1.6581
8.9018,525,1.6935
8.9061,509,1.6419
8.9104,483,1.5581
8.9147,491,1.5839
8.9190,521,1.6806
8.9233,530,1.7097
8.9276,508,1.6387
8.9319,488,1.5742
8.9362,519,1.6742
8.9405,567,1.8290
8.9448,583,1.8806
8.9490,542,1.7484
8.9533,476,1.5355
8.9576,435,1.4032
8.9620,421,1.3581
8.9663,421,1.3581
8.9705,423,1.3645
8.9748,432,1.3935
8.9791,453,1.4613
8.9834,467,1.5065
8.9877,449,1.4484
8.9920,425,1.3710
8.9963,427,1.3774
9.0006,465,1.5000
9.0049,488,1.5742
9.0092,470,1.5161
9.0135,468,1.5097
9.0178,504,1.6258
9.0221,504,1.6258
9.0264,462,1.4903
9.0307,423,1.3645
9.0349,428,1.3806
9.0392,467,1.5065
9.0435,486,1.5677
9.0478,472,1.5226
9.0521,446,1.4387
9.0563,463,1.4935
9.0606,498,1.6065
9.0649,498,1.6065
9.0692,458,1.4774
9.0735,440,1.4194
9.0778,472,1.5226
9.0821,508,1.6387
9.0864,509,1.6419
9.0906,484,1.5613
9.0949,481,1.5516
9.0992,493,1.5903
9.1035,469,1.5129
9.1078,416,1.3419
9.1121,399,1.2871
9.1164,415,1.3387
9.1207,419,1.3516
9.1249,398,1.2839
9.1292,376,1.2129
9.1336,379,1.2226
9.1383,447,1.4419
9.1427,488,1.5742
9.1470,477,1.5387
9.1513,466,1.5032
9.1556,490,1.5806
9.1599,503,1.6226
9.1649,477,1.5387
9.1692,439,1.4161
9.1735,443,1.4290
9.1777,473,1.5258
9.1820,484,1.5613
9.1863,472,1.5226
9.1906,452,1.4581
9.1949,455,1.4677
9.1991,470,1.5161
9.2034,469,1.5129
9.2077,440,1.4194
9.2120,420,1.3548
9.2167,442,1.4258
9.2210,474,1.5290
9.2253,476,1.5355
9.2296,457,1.4742
9.2338,443,1.4290
9.2382,462,1.4903
9.2425,467,1.5065
9.2468,438,1.4129
9.2511,415,1.3387
9.2554,431,1.3903
9.2597,464,1.4968
9.2640,463,1.4935
9.2683,416,1.3419
9.2727,388,1.2516
9.2770,417,1.3452
9.2813,468,1.5097
9.2856,478,1.5419
9.2899,453,1.4613
9.2942,446,1.4387
9.2989,484,1.5613
9.3033,497,1.6032
9.3076,475,1.5323
9.3119,466,1.5032
9.3163,502,1.6194
9.3206,544,1.7548
9.3253,537,1.7323
9.3296,532,1.7161
9.3339,551,1.7774
9.3382,585,1.8871
9.3425,600,1.9355
9.3469,588,1.8968
9.3512,560,1.8065
9.3554,540,1.7419
9.3597,560,1.8065
9.3647,568,1.8323
9.3691,527,1.7000
9.3734,498,1.6065
9.3777,500,1.6129
9.3820,506,1.6323
9.3863,490,1.5806
9.3906,467,1.5065
9.3949,480,1.5484
9.3992,509,1.6419
9.4035,518,1.6710
9.4079,491,1.5839
9.4121,463,1.4935
9.4164,470,1.5161
9.4214,493,1.5903
9.4264,469,1.5129
9.4308,441,1.4226
9.4352,456,1.4710
9.4396,512,1.6516
9.4440,523,1.6871
9.4483,474,1.5290
9.4527,438,1.4129
9.4570,458,1.4774
9.4613,478,1.5419
9.4656,492,1.5871
9.4700,552,1.7806
9.4743,723,2.3323
9.4786,923,2.9774
9.4829,843,2.7194
9.4872,583,1.8806
9.4915,423,1.3645
9.4958,420,1.3548
9.5001,465,1.5000
9.5047,472,1.5226
9.5090,430,1.3871
9.5133,402,1.2968
9.5180,425,1.3710
9.5223,464,1.4968
9.5266,466,1.5032
9.5309,435,1.4032
9.5352,430,1.3871
9.5395,454,1.4645
9.5438,458,1.4774
9.5481,434,1.4000
9.5524,433,1.3968
9.5567,468,1.5097
9.5610,493,1.5903
9.5653,467,1.5065
9.5702,437,1.4097
9.5745,438,1.4129
9.5788,452,1.4581
9.5831,442,1.4258
9.5874,406,1.3097
9.5917,384,1.2387
9.5960,428,1.3806
9.6003,472,1.5226
9.6046,464,1.4968
9.6089,419,1.3516
9.6133,408,1.3161
9.6176,448,1.4452
9.6219,473,1.5258
9.6262,433,1.3968
9.6305,386,1.2452
9.6349,404,1.3032
9.6391,464,1.4968
9.6434,479,1.5452
9.6477,435,1.4032
9.6521,404,1.3032
9.6564,430,1.3871
9.6606,486,1.5677
9.6649,526,1.6968
9.6692,518,1.6710
9.6736,499,1.6097
9.6779,520,1.6774
9.6822,549,1.7710
9.6865,559,1.8032
9.6908,553,1.7839
9.6951,574,1.8516
9.6994,615,1.9839
9.7037,634,2.0452
9.7080,619,1.9968
9.7128,602,1.9419
9.7172,618,1.9935
9.7215,638,2.0581
9.7258,622,2.0065
9.7301,598,1.9290
9.7344,586,1.8903
9.7387,594,1.9161
9.7430,601,1.9387
9.7473,560,1.8065
9.7516,510,1.6452
9.7560,513,1.6548
9.7603,546,1.7613
9.7646,539,1.7387
9.7689,490,1.5806
9.7741,475,1.5323
9.7784,518,1.6710
9.7827,551,1.7774
9.7870,558,1.8000
9.7913,541,1.7452
9.7956,540,1.7419
9.7999,564,1.8194
9.8042,587,1.8935
9.8085,579,1.8677
9.8128,558,1.8000
9.8172,573,1.8484
9.8215,605,1.9516
9.8258,590,1.9032
9.8301,543,1.7516
9.8344,529,1.7065
9.8387,557,1.7968
9.8430,582,1.8774
9.8473,591,1.9065
9.8516,577,1.8613
9.8560,581,1.8742
9.8603,589,1.9000
9.8645,577,1.8613
9.8688,531,1.7129
9.8731,515,1.6613
9.8775,537,1.7323
9.8818,563,1.8161
9.8861,571,1.8419
9.8904,532,1.7161
9.8947,516,1.6645
9.8990,548,1.7677
9.9033,558,1.8000
9.9076,521,1.6806
9.9119,487,1.5710
9.9162,485,1.5645
9.9205,497,1.6032
9.9249,489,1.5774
9.9291,434,1.4000
9.9334,392,1.2645
9.9378,416,1.3419
9.9421,440,1.4194
9.9464,421,1.3581
9.9506,397,1.2806
9.9549,439,1.4161
9.9593,505,1.6290
9.9636,526,1.6968
9.9678,497,1.6032
9.9722,475,1.5323
9.9765,490,1.5806
9.9808,516,1.6645
9.9851,516,1.6645
9.9894,506,1.6323
9.9937,508,1.6387
9.9985,541,1.7452
10.0028,563,1.8161
10.0071,549,1.7710
10.0115,519,1.6742
10.0160,521,1.6806
10.0206,548,1.7677
10.0259,535,1.7258
10.0305,516,1.6645
10.0358,528,1.7032
10.0403,559,1.8032
10.0447,569,1.8355
10.0490,535,1.7258
10.0533,528,1.7032
10.0576,548,1.7677
10.0619,547,1.7645
10.0662,520,1.6774
10.0706,496,1.6000
10.0749,504,1.6258
10.0792,534,1.7226
10.0835,532,1.7161
10.0878,496,1.6000
10.0921,463,1.4935
10.0963,466,1.5032
10.1006,501,1.6161
10.1049,513,1.6548
10.1092,491,1.5839
10.1134,463,1.4935
10.1177,488,1.5742
10.1221,533,1.7194
10.1264,530,1.7097
10.1307,505,1.6290
10.1349,514,1.6581
10.1392,551,1.7774
10.1435,577,1.8613
10.1478,566,1.8258
10.1520,528,1.7032
10.1563,523,1.6871
10.1606,550,1.7742
10.1649,556,1.7935
10.1692,528,1.7032
10.1735,523,1.6871
10.1778,550,1.7742
10.1821,575,1.8548
10.1865,544,1.7548
10.1908,497,1.6032
10.1950,497,1.6032
10.1994,547,1.7645
10.2037,572,1.8452
10.2080,566,1.8258
10.2123,577,1.8613
10.2166,620,2.0000
10.2209,671,2.1645
10.2252,677,2.1839
10.2295,645,2.0806
10.2338,636,2.0516
10.2381,671,2.1645
10.2424,678,2.1871
10.2468,651,2.1000
10.2510,588,1.8968
10.2553,576,1.8581
10.2596,607,1.9581
10.2639,619,1.9968
10.2683,586,1.8903
10.2726,563,1.8161
10.2773,590,1.9032
10.2816,622,2.0065
10.2860,614,1.9806
10.2903,572,1.8452
10.2946,552,1.7806
10.2989,569,1.8355
10.3032,583,1.8806
10.3075,556,1.7935
10.3118,526,1.6968
10.3161,530,1.7097
10.3204,566,1.8258
10.3247,587,1.8935
10.3291,580,1.8710
10.3337,579,1.8677
10.3382,596,1.9226
10.3426,607,1.9581
10.3470,587,1.8935
10.3513,564,1.8194
10.3556,574,1.8516
10.3599,635,2.0484
10.3642,740,2.3871
10.3685,890,2.8710
10.3729,948,3.0581
10.3772,782,2.5226
10.3815,604,1.9484
10.3858,506,1.6323
10.3901,483,1.5581
10.3944,491,1.5839
10.3987,513,1.6548
10.4030,522,1.6839
10.4073,509,1.6419
10.4117,506,1.6323
10.4160,526,1.6968
10.4203,548,1.7677
10.4246,529,1.7065
10.4290,489,1.5774
10.4333,458,1.4774
10.4376,469,1.5129
10.4419,491,1.5839
10.4462,487,1.5710
10.4505,461,1.4871
10.4548,447,1.4419
10.4591,474,1.5290
10.4634,513,1.6548
10.4677,523,1.6871
10.4720,520,1.6774
10.4763,540,1.7419
10.4806,572,1.8452
10.4850,557,1.7968
10.4893,525,1.6935
10.4935,521,1.6806
10.4978,549,1.7710
10.5021,559,1.8032
10.5064,535,1.7258
10.5107,499,1.6097
10.5150,480,1.5484
10.5193,485,1.5645
10.5235,480,1.5484
10.5278,459,1.4806
10.5320,459,1.4806
10.5363,489,1.5774
10.5406,537,1.7323
10.5448,536,1.7290
10.5491,480,1.5484
10.5534,446,1.4387
10.5576,481,1.5516
10.5619,518,1.6710
10.5661,525,1.6935
10.5704,504,1.6258
10.5747,501,1.6161
10.5790,537,1.7323
10.5833,569,1.8355
10.5876,545,1.7581
10.5919,487,1.5710
10.5962,475,1.5323
10.6005,490,1.5806
10.6048,476,1.5355
10.6091,443,1.4290
10.6134,434,1.4000
10.6177,461,1.4871
10.6220,485,1.5645
10.6263,477,1.5387
10.6306,467,1.5065
10.6349,490,1.5806
10.6392,513,1.6548
10.6435,508,1.6387
10.6478,477,1.5387
10.6520,452,1.4581
10.6563,467,1.5065
10.6606,479,1.5452
10.6649,460,1.4839
10.6692,431,1.3903
10.6735,419,1.3516
10.6778,421,1.3581
10.6821,414,1.3355
10.6864,380,1.2258
10.6906,336,1.0839
10.6949,346,1.1161
10.6991,378,1.2194
10.7034,389,1.2548
10.7076,388,1.2516
10.7119,416,1.3419
10.7162,466,1.5032
10.7205,508,1.6387
10.7248,514,1.6581
10.7290,501,1.6161
10.7333,504,1.6258
10.7375,520,1.6774
10.7418,508,1.6387
10.7461,475,1.5323
10.7503,455,1.4677
10.7546,459,1.4806
10.7588,478,1.5419
10.7631,507,1.6355
10.7674,499,1.6097
10.7716,477,1.5387
10.7760,468,1.5097
10.7803,494,1.5935
10.7846,520,1.6774
10.7889,523,1.6871
10.7932,514,1.6581
10.7975,510,1.6452
10.8018,509,1.6419
10.8061,470,1.5161
10.8104,425,1.3710
10.8147,420,1.3548
10.8190,451,1.4548
10.8233,463,1.4935
10.8276,458,1.4774
10.8319,486,1.5677
10.8363,515,1.6613
10.8405,527,1.7000
10.8448,520,1.6774
10.8491,466,1.5032
10.8534,424,1.3677
10.8577,433,1.3968
10.8620,470,1.5161
10.8663,468,1.5097
10.8705,447,1.4419
10.8748,443,1.4290
10.8791,456,1.4710
10.8834,459,1.4806
10.8876,423,1.3645
10.8919,415,1.3387
10.8962,460,1.4839
10.9004,519,1.6742
10.9047,534,1.7226
10.9089,534,1.7226
10.9132,527,1.7000
10.9175,536,1.7290
10.9217,549,1.7710
10.9261,554,1.7871
10.9308,555,1.7903
10.9387,585,1.8871
10.9431,598,1.9290
10.9473,583,1.8806
10.9516,576,1.8581
10.9559,605,1.9516
10.9601,645,2.0806
10.9644,646,2.0839
10.9687,588,1.8968
10.9729,516,1.6645
10.9772,494,1.5935
10.9816,486,1.5677
10.9858,477,1.5387
10.9901,461,1.4871
10.9943,466,1.5032
10.9986,504,1.6258
11.0028,534,1.7226
11.0071,524,1.6903
11.0113,508,1.6387
11.0156,525,1.6935
11.0199,559,1.8032
11.0241,564,1.8194
11.0284,525,1.6935
11.0326,485,1.5645
11.0369,480,1.5484
11.0411,482,1.5548
11.0454,459,1.4806
11.0496,444,1.4323
11.0539,460,1.4839
11.0581,506,1.6323
11.0624,532,1.7161
11.0666,508,1.6387
11.0709,474,1.5290
11.0751,492,1.5871
11.0794,550,1.7742
11.0837,616,1.9871
11.0880,637,2.0548
11.0923,630,2.0323
11.0966,636,2.0516
11.1009,645,2.0806
11.1052,624,2.0129
11.1095,576,1.8581
11.1138,583,1.8806
11.1180,619,1.9968
11.1223,648,2.0903
11.1266,638,2.0581
11.1309,621,2.0032
11.1391,621,2.0032
11.1435,647,2.0871
11.1478,650,2.0968
11.1522,644,2.0774
11.1565,668,2.1548
11.1608,695,2.2419
11.1651,705,2.2742
11.1694,681,2.1968
11.1736,655,2.1129
11.1780,673,2.1710
11.1823,694,2.2387
11.1866,683,2.2032
11.1909,645,2.0806
11.1951,624,2.0129
11.1994,668,2.1548
11.2036,703,2.2677
11.2079,699,2.2548
11.2122,682,2.2000
11.2164,680,2.1935
11.2207,701,2.2613
11.2249,694,2.2387
11.2292,636,2.0516
11.2334,627,2.0226
11.2378,732,2.3613
11.2423,784,2.5290
11.2466,728,2.3484
11.2509,677,2.1839
11.2552,686,2.2129
11.2594,717,2.3129
11.2638,727,2.3452
11.2680,714,2.3032
11.2723,682,2.2000
11.2765,681,2.1968
11.2808,704,2.2710
11.2851,724,2.3355
11.2893,710,2.2903
11.2936,678,2.1871
11.2979,676,2.1806
11.3021,678,2.1871
11.3064,665,2.1452
11.3107,617,1.9903
11.3150,585,1.8871
11.3192,585,1.8871
11.3235,571,1.8419
11.3277,546,1.7613
11.3320,538,1.7355
11.3363,548,1.7677
11.3405,585,1.8871
11.3447,655,2.1129
11.3490,797,2.5710
11.3533,972,3.1355
11.3575,951,3.0677
11.3618,781,2.5194
11.3661,622,2.0065
11.3703,575,1.8548
11.3746,610,1.9677
11.3788,661,2.1323
11.3831,661,2.1323
11.3874,612,1.9742
11.3917,568,1.8323
11.3961,575,1.8548
11.4003,622,2.0065
11.4046,636,2.0516
11.4089,571,1.8419
11.4132,545,1.7581
11.4175,585,1.8871
11.4218,609,1.9645
11.4261,574,1.8516
11.4304,528,1.7032
11.4347,528,1.7032
11.4390,568,1.8323
11.4433,617,1.9903
11.4475,606,1.9548
11.4518,529,1.7065
11.4561,461,1.4871
11.4604,433,1.3968
11.4647,420,1.3548
11.4690,390,1.2581
11.4733,358,1.1548
11.4776,379,1.2226
11.4819,416,1.3419
11.4862,392,1.2645
11.4905,353,1.1387
11.4948,356,1.1484
11.4991,403,1.3000
11.5034,431,1.3903
11.5077,403,1.3000
11.5120,358,1.1548
11.5163,338,1.0903
11.5206,356,1.1484
11.5248,373,1.2032
11.5291,360,1.1613
11.5334,354,1.1419
11.5378,382,1.2323
11.5420,414,1.3355
11.5463,392,1.2645
11.5506,372,1.2000
11.5549,388,1.2516
11.5592,424,1.3677
11.5635,445,1.4355
11.5678,441,1.4226
11.5721,418,1.3484
11.5764,414,1.3355
11.5806,438,1.4129
11.5849,450,1.4516
11.5892,440,1.4194
11.5934,412,1.3290
11.5977,403,1.3000
11.6020,417,1.3452
11.6063,431,1.3903
11.6108,426,1.3742
11.6151,431,1.3903
11.6194,450,1.4516
11.6237,437,1.4097
11.6280,403,1.3000
11.6323,394,1.2710
11.6366,428,1.3806
11.6409,462,1.4903
11.6451,452,1.4581
11.6494,421,1.3581
11.6537,392,1.2645
11.6580,371,1.1968
11.6623,381,1.2290
11.6666,413,1.3323
11.6709,408,1.3161
11.6751,391,1.2613
11.6794,409,1.3194
11.6838,422,1.3613
11.6880,431,1.3903
11.6923,442,1.4258
11.6966,477,1.5387
11.7009,524,1.6903
11.7052,532,1.7161
11.7095,517,1.6677
11.7138,516,1.6645
11.7181,540,1.7419
11.7224,577,1.8613
11.7267,597,1.9258
11.7310,592,1.9097
11.7353,593,1.9129
11.7396,635,2.0484
11.7438,671,2.1645
11.7481,663,2.1387
11.7524,639,2.0613
11.7567,644,2.0774
11.7610,681,2.1968
11.7653,688,2.2194
11.7695,607,1.9581
11.7739,534,1.7226
11.7781,508,1.6387
11.7824,483,1.5581
11.7867,443,1.4290
11.7910,414,1.3355
11.7953,452,1.4581
11.7996,508,1.6387
11.8039,515,1.6613
11.8081,472,1.5226
11.8124,439,1.4161
11.8167,467,1.5065
11.8210,523,1.6871
11.8253,529,1.7065
11.8296,498,1.6065
11.8354,480,1.5484
11.8399,539,1.7387
11.8444,586,1.8903
11.8487,570,1.8387
11.8530,526,1.6968
11.8573,529,1.7065
11.8616,573,1.8484
11.8659,583,1.8806
11.8702,561,1.8097
11.8745,577,1.8613
11.8788,630,2.0323
11.8831,675,2.1774
11.8874,680,2.1935
11.8916,658,2.1226
11.8959,668,2.1548
11.9002,713,2.3000
11.9044,743,2.3968
11.9087,737,2.3774
11.9130,673,2.1710
11.9172,582,1.8774
11.9215,558,1.8000
11.9258,559,1.8032
11.9300,489,1.5774
11.9342,418,1.3484
11.9385,413,1.3323
11.9427,426,1.3742
11.9470,420,1.3548
11.9512,400,1.2903
11.9556,399,1.2871
11.9598,416,1.3419
11.9641,428,1.3806
11.9684,444,1.4323
11.9726,456,1.4710
11.9769,476,1.5355
11.9811,497,1.6032
11.9854,485,1.5645
11.9896,441,1.4226
11.9939,416,1.3419
11.9982,423,1.3645
12.0025,424,1.3677
12.0068,378,1.2194
12.0111,344,1.1097
12.0154,347,1.1194
12.0197,377,1.2161
12.0240,380,1.2258
12.0282,354,1.1419
12.0326,325,1.0484
12.0369,306,0.9871
12.0411,270,0.8710
12.0454,220,0.7097
12.0497,125,0.4032
12.0540,44,0.1419
12.0583,9,0.0290
12.0626,4,0.0129
12.0669,1,0.0032
12.0712,0,0.0000
12.0754,9,0.0290
12.0797,69,0.2226
12.0840,117,0.3774
12.0883,117,0.3774
12.0926,99,0.3194
12.0969,94,0.3032
12.1012,104,0.3355
12.1055,104,0.3355
12.1098,77,0.2484
12.1141,52,0.1677
12.1184,52,0.1677
12.1226,55,0.1774
12.1269,43,0.1387
12.1315,14,0.0452
12.1359,4,0.0129
12.1404,32,0.1032
12.1448,52,0.1677
12.1491,22,0.0710
12.1535,0,0.0000
12.1577,6,0.0194
12.1620,26,0.0839
12.1663,19,0.0613
12.1706,0,0.0000
12.1749,0,0.0000
12.1792,29,0.0935
12.1835,77,0.2484
12.1878,97,0.3129
12.1920,109,0.3516
12.1963,131,0.4226
12.2006,169,0.5452
12.2048,192,0.6194
12.2091,178,0.5742
12.2134,177,0.5710
12.2176,219,0.7065
12.2219,243,0.7839
12.2262,223,0.7194
12.2305,184,0.5935
12.2347,170,0.5484
12.2390,231,0.7452
12.2432,297,0.9581
12.2475,296,0.9548
12.2517,252,0.8129
12.2560,244,0.7871
12.2603,293,0.9452
12.2646,334,1.0774
12.2688,325,1.0484
12.2731,307,0.9903
12.2774,326,1.0516
12.2816,377,1.2161
12.2859,404,1.3032
12.2902,387,1.2484
12.2945,389,1.2548
12.2988,430,1.3871
12.3031,461,1.4871
12.3074,470,1.5161
12.3117,470,1.5161
12.3160,511,1.6484
12.3203,571,1.8419
12.3246,605,1.9516
12.3289,591,1.9065
12.3332,553,1.7839
12.3375,530,1.7097
12.3418,553,1.7839
12.3461,544,1.7548
12.3504,485,1.5645
12.3547,458,1.4774
12.3590,490,1.5806
12.3633,514,1.6581
12.3676,494,1.5935
12.3718,465,1.5000
12.3761,458,1.4774
12.3804,488,1.5742
12.3847,492,1.5871
12.3890,461,1.4871
12.3933,441,1.4226
12.3976,485,1.5645
12.4019,534,1.7226
12.4062,533,1.7194
12.4105,491,1.5839
12.4148,466,1.5032
12.4190,497,1.6032
12.4234,530,1.7097
12.4276,503,1.6226
12.4319,457,1.4742
12.4362,449,1.4484
12.4405,468,1.5097
12.4448,485,1.5645
12.4491,503,1.6226
12.4534,624,2.0129
12.4577,804,2.5935
12.4620,763,2.4613
12.4663,554,1.7871
12.4706,374,1.2065
12.4749,313,1.0097
12.4792,334,1.0774
12.4835,336,1.0839
12.4878,286,0.9226
12.4921,233,0.7516
12.4964,244,0.7871
12.5007,319,1.0290
12.5051,385,1.2419
12.5093,375,1.2097
12.5137,344,1.1097
12.5180,351,1.1323
12.5223,385,1.2419
12.5266,403,1.3000
12.5309,383,1.2355
12.5351,394,1.2710
12.5395,437,1.4097
12.5437,461,1.4871
12.5480,430,1.3871
12.5523,372,1.2000
12.5566,366,1.1806
12.5609,411,1.3258
12.5652,446,1.4387
12.5694,446,1.4387
12.5737,436,1.4065
12.5780,458,1.4774
12.5823,487,1.5710
12.5866,488,1.5742
12.5909,458,1.4774
12.5951,441,1.4226
12.5994,487,1.5710
12.6037,526,1.6968
12.6080,486,1.5677
12.6123,431,1.3903
12.6166,427,1.3774
12.6209,468,1.5097
12.6252,493,1.5903
12.6295,474,1.5290
12.6338,465,1.5000
12.6381,506,1.6323
12.6424,549,1.7710
12.6467,554,1.7871
12.6509,487,1.5710
12.6553,403,1.3000
12.6595,395,1.2742
12.6638,442,1.4258
12.6681,468,1.5097
12.6724,477,1.5387
12.6767,518,1.6710
12.6810,576,1.8581
12.6853,632,2.0387
12.6896,661,2.1323
12.6939,689,2.2226
12.6982,772,2.4903
12.7025,855,2.7581
12.7068,895,2.8871
12.7111,891,2.8742
12.7154,927,2.9903
12.7197,1001,3.2290
12.7240,1003,3.2355
12.7283,1003,3.2355
12.7327,1003,3.2355
12.7372,1005,3.2419
12.7440,1005,3.2419
12.7484,1005,3.2419
12.7527,1005,3.2419
12.7570,1006,3.2452
12.7613,1005,3.2419
12.7656,1005,3.2419
12.7699,1005,3.2419
12.7741,1005,3.2419
12.7784,1006,3.2452
12.7827,1006,3.2452
12.7870,1004,3.2387
12.7913,1004,3.2387
12.7956,1005,3.2419
12.7999,1004,3.2387
12.8041,1002,3.2323
12.8084,1001,3.2290
12.8127,992,3.2000
12.8169,958,3.0903
12.8212,923,2.9774
12.8255,876,2.8258
12.8298,817,2.6355
12.8340,792,2.5548
12.8383,813,2.6226
12.8426,817,2.6355
12.8468,764,2.4645
12.8511,687,2.2161
12.8553,648,2.0903
12.8596,665,2.1452
12.8639,664,2.1419
12.8681,619,1.9968
12.8724,573,1.8484
12.8766,577,1.8613
12.8808,613,1.9774
12.8851,605,1.9516
12.8894,551,1.7774
12.8936,513,1.6548
12.8979,515,1.6613
12.9022,549,1.7710
12.9071,547,1.7645
12.9115,506,1.6323
12.9158,520,1.6774
12.9201,589,1.9000
12.9244,636,2.0516
12.9287,640,2.0645
12.9330,653,2.1065
12.9373,712,2.2968
12.9416,781,2.5194
12.9459,803,2.5903
12.9502,791,2.5516
12.9545,789,2.5452
12.9588,832,2.6839
12.9631,888,2.8645
12.9674,900,2.9032
12.9717,872,2.8129
12.9761,876,2.8258
12.9804,933,3.0097
12.9847,952,3.0710
12.9890,902,2.9097
12.9933,867,2.7968
12.9976,908,2.9290
13.0019,989,3.1903
13.0061,1000,3.2258
13.0105,990,3.1935
13.0149,974,3.1419
13.0191,985,3.1774
13.0234,996,3.2129
13.0277,989,3.1903
13.0320,950,3.0645
13.0366,944,3.0452
13.0409,973,3.1387
13.0453,993,3.2032
13.0496,974,3.1419
13.0539,944,3.0452
13.0581,942,3.0387
13.0624,964,3.1097
13.0666,970,3.1290
13.0709,961,3.1000
13.0752,984,3.1742
13.0794,997,3.2161
13.0837,999,3.2226
13.0880,1000,3.2258
13.0922,999,3.2226
13.0965,1002,3.2323
13.1007,1003,3.2355
13.1050,1003,3.2355
13.1092,1004,3.2387
13.1135,1005,3.2419
13.1178,1002,3.2323
13.1220,1004,3.2387
13.1263,996,3.2129
13.1306,1001,3.2290
13.1349,902,2.9097
13.1391,739,2.3839
13.1434,656,2.1161
13.1477,648,2.0903
13.1519,664,2.1419
13.1562,693,2.2355
13.1605,700,2.2581
13.1647,633,2.0419
13.1690,510,1.6452
13.1732,450,1.4516
13.1775,503,1.6226
13.1818,568,1.8323
13.1861,523,1.6871
13.1903,432,1.3935
13.1946,399,1.2871
13.1990,455,1.4677
13.2032,501,1.6161
13.2075,486,1.5677
13.2119,456,1.4710
13.2162,493,1.5903
13.2205,573,1.8484
13.2248,614,1.9806
13.2291,573,1.8484
13.2334,506,1.6323
13.2377,480,1.5484
13.2420,492,1.5871
13.2463,490,1.5806
13.2506,438,1.4129
13.2548,385,1.2419
13.2591,380,1.2258
13.2634,412,1.3290
13.2677,417,1.3452
13.2720,382,1.2323
13.2763,354,1.1419
13.2806,361,1.1645
13.2849,360,1.1613
13.2891,309,0.9968
13.2934,251,0.8097
13.2977,249,0.8032
13.3020,272,0.8774
13.3063,256,0.8258
13.3106,187,0.6032
13.3149,159,0.5129
13.3192,229,0.7387
13.3235,302,0.9742
13.3278,302,0.9742
13.3321,287,0.9258
13.3364,320,1.0323
13.3407,393,1.2677
13.3450,453,1.4613
13.3492,536,1.7290
13.3535,707,2.2806
13.3578,796,2.5677
13.3621,640,2.0645
13.3664,417,1.3452
13.3707,281,0.9065
13.3750,284,0.9161
13.3793,365,1.1774
13.3836,415,1.3387
13.3879,397,1.2806
13.3922,361,1.1645
13.3965,380,1.2258
13.4008,434,1.4000
13.4051,439,1.4161
13.4094,400,1.2903
13.4137,389,1.2548
13.4180,425,1.3710
13.4223,465,1.5000
13.4266,454,1.4645
13.4309,415,1.3387
13.4352,404,1.3032
13.4395,455,1.4677
13.4437,488,1.5742
13.4480,471,1.5194
13.4523,429,1.3839
13.4566,434,1.4000
13.4609,472,1.5226
13.4652,490,1.5806
13.4695,433,1.3968
13.4738,367,1.1839
13.4781,350,1.1290
13.4824,358,1.1548
13.4867,338,1.0903
13.4910,290,0.9355
13.4953,284,0.9161
13.4996,335,1.0806
13.5039,368,1.1871
13.5082,356,1.1484
13.5125,339,1.0935
13.5168,358,1.1548
13.5211,384,1.2387
13.5253,369,1.1903
13.5296,322,1.0387
13.5339,278,0.8968
13.5382,284,0.9161
13.5425,310,1.0000
13.5468,297,0.9581
13.5510,251,0.8097
13.5554,231,0.7452
13.5596,268,0.8645
13.5639,310,1.0000
13.5682,315,1.0161
13.5725,305,0.9839
13.5768,318,1.0258
13.5811,355,1.1452
13.5854,363,1.1710
13.5897,357,1.1516
13.5939,360,1.1613
13.5983,397,1.2806
13.6026,462,1.4903
13.6069,480,1.5484
13.6112,460,1.4839
13.6155,456,1.4710
13.6198,488,1.5742
13.6241,520,1.6774
13.6283,509,1.6419
13.6326,476,1.5355
13.6370,480,1.5484
13.6414,528,1.7032
13.6458,576,1.8581
13.6502,570,1.8387
13.6544,564,1.8194
13.6587,617,1.9903
13.6630,647,2.0871
13.6674,584,1.8839
13.6716,478,1.5419
13.6760,414,1.3355
13.6802,428,1.3806
13.6845,453,1.4613
13.6888,441,1.4226
13.6931,414,1.3355
13.6974,440,1.4194
13.7017,489,1.5774
13.7060,494,1.5935
13.7103,444,1.4323
13.7146,407,1.3129
13.7188,445,1.4355
13.7231,512,1.6516
13.7274,525,1.6935
13.7316,483,1.5581
13.7359,468,1.5097
13.7401,495,1.5968
13.7443,505,1.6290
13.7486,469,1.5129
13.7529,432,1.3935
13.7571,450,1.4516
13.7614,491,1.5839
13.7656,471,1.5194
13.7699,375,1.2097
13.7742,320,1.0323
13.7785,357,1.1516
13.7827,425,1.3710
13.7870,426,1.3742
13.7912,367,1.1839
13.7955,338,1.0903
13.7997,377,1.2161
13.8041,409,1.3194
13.8084,389,1.2548
13.8127,363,1.1710
13.8170,367,1.1839
13.8213,407,1.3129
13.8256,420,1.3548
13.8299,389,1.2548
13.8342,366,1.1806
13.8385,381,1.2290
13.8428,412,1.3290
13.8471,398,1.2839
13.8514,363,1.1710
13.8557,373,1.2032
13.8600,404,1.3032
13.8644,401,1.2935
13.8686,348,1.1226
13.8729,305,0.9839
13.8772,307,0.9903
13.8815,357,1.1516
13.8858,385,1.2419
13.8901,361,1.1645
13.8944,339,1.0935
13.8987,365,1.1774
13.9030,393,1.2677
13.9072,376,1.2129
13.9116,332,1.0710
13.9159,323,1.0419
13.9201,364,1.1742
13.9245,396,1.2774
13.9287,382,1.2323
13.9331,344,1.1097
13.9375,353,1.1387
13.9419,397,1.2806
13.9463,395,1.2742
13.9506,344,1.1097
13.9549,324,1.0452
13.9593,375,1.2097
13.9637,427,1.3774
13.9679,408,1.3161
13.9722,372,1.2000
13.9765,391,1.2613
13.9809,447,1.4419
13.9851,483,1.5581
13.9894,464,1.4968
13.9937,435,1.4032
13.9980,435,1.4032
14.0023,441,1.4226
14.0066,416,1.3419
14.0109,365,1.1774
14.0151,357,1.1516
14.0194,401,1.2935
14.0237,428,1.3806
14.0279,404,1.3032
14.0322,366,1.1806
14.0364,377,1.2161
14.0407,431,1.3903
14.0450,453,1.4613
14.0492,418,1.3484
14.0535,372,1.2000
14.0577,376,1.2129
14.0620,430,1.3871
14.0662,468,1.5097
14.0705,426,1.3742
14.0747,375,1.2097
14.0790,377,1.2161
14.0833,398,1.2839
14.0876,398,1.2839
14.0918,386,1.2452
14.0961,379,1.2226
14.1004,403,1.3000
14.1046,436,1.4065
14.1089,419,1.3516
14.1132,391,1.2613
14.1175,406,1.3097
14.1219,434,1.4000
14.1261,427,1.3774
14.1304,402,1.2968
14.1347,413,1.3323
14.1390,453,1.4613
14.1433,487,1.5710
14.1476,480,1.5484
14.1519,444,1.4323
14.1562,433,1.3968
14.1605,452,1.4581
14.1648,458,1.4774
14.1691,442,1.4258
14.1734,434,1.4000
14.1776,468,1.5097
14.1819,522,1.6839
14.1863,530,1.7097
14.1905,490,1.5806
14.1948,473,1.5258
14.1991,521,1.6806
14.2034,577,1.8613
14.2078,588,1.8968
14.2121,561,1.8097
14.2164,565,1.8226
14.2207,599,1.9323
14.2249,608,1.9613
14.2292,547,1.7645
14.2335,495,1.5968
14.2378,493,1.5903
14.2421,508,1.6387
14.2464,473,1.5258
14.2507,415,1.3387
14.2550,386,1.2452
14.2593,416,1.3419
14.2636,452,1.4581
14.2679,441,1.4226
14.2722,415,1.3387
14.2765,418,1.3484
14.2808,445,1.4355
14.2851,461,1.4871
14.2894,432,1.3935
14.2937,413,1.3323
14.2980,436,1.4065
14.3023,484,1.5613
14.3066,483,1.5581
14.3109,435,1.4032
14.3152,413,1.3323
14.3195,450,1.4516
14.3238,516,1.6645
14.3281,520,1.6774
14.3324,502,1.6194
14.3367,547,1.7645
14.3410,699,2.2548
14.3453,910,2.9355
14.3496,985,3.1774
14.3539,819,2.6419
14.3582,624,2.0129
14.3625,525,1.6935
14.3668,485,1.5645
14.3711,463,1.4935
14.3754,481,1.5516
14.3796,546,1.7613
14.3839,583,1.8806
14.3882,538,1.7355
14.3925,487,1.5710
14.3968,509,1.6419
14.4011,579,1.8677
14.4054,608,1.9613
14.4097,564,1.8194
14.4140,504,1.6258
14.4183,495,1.5968
14.4226,508,1.6387
14.4269,493,1.5903
14.4312,454,1.4645
14.4355,453,1.4613
14.4398,507,1.6355
14.4441,548,1.7677
14.4484,516,1.6645
14.4527,462,1.4903
14.4570,470,1.5161
14.4613,517,1.6677
14.4656,618,1.9935
14.4699,612,1.9742
14.4742,550,1.7742
14.4784,539,1.7387
14.4827,565,1.8226
14.4870,562,1.8129
14.4913,530,1.7097
14.4956,521,1.6806
14.4999,553,1.7839
14.5042,568,1.8323
14.5085,530,1.7097
14.5128,473,1.5258
14.5171,481,1.5516
14.5214,523,1.6871
14.5257,525,1.6935
14.5300,481,1.5516
14.5343,458,1.4774
14.5406,525,1.6935
14.5450,548,1.7677
14.5493,508,1.6387
14.5536,475,1.5323
14.5579,494,1.5935
14.5622,541,1.7452
14.5666,549,1.7710
14.5709,516,1.6645
14.5752,523,1.6871
14.5795,570,1.8387
14.5837,596,1.9226
14.5880,562,1.8129
14.5923,518,1.6710
14.5966,526,1.6968
14.6009,579,1.8677
14.6052,605,1.9516
14.6095,575,1.8548
14.6137,541,1.7452
14.6180,560,1.8065
14.6223,602,1.9419
14.6266,596,1.9226
14.6308,549,1.7710
14.6351,534,1.7226
14.6393,569,1.8355
14.6436,605,1.9516
14.6478,577,1.8613
14.6521,517,1.6677
14.6563,506,1.6323
14.6606,546,1.7613
14.6649,576,1.8581
14.6697,560,1.8065
14.6740,547,1.7645
14.6783,568,1.8323
14.6825,595,1.9194
14.6868,569,1.8355
14.6911,498,1.6065
14.6953,448,1.4452
14.6996,458,1.4774
14.7038,497,1.6032
14.7081,505,1.6290
14.7124,483,1.5581
14.7166,512,1.6516
14.7216,574,1.8516
14.7259,569,1.8355
14.7302,549,1.7710
14.7345,560,1.8065
14.7388,602,1.9419
14.7431,641,2.0677
14.7475,615,1.9839
14.7517,556,1.7935
14.7560,518,1.6710
14.7604,552,1.7806
14.7652,600,1.9355
14.7696,580,1.8710
14.7739,525,1.6935
14.7782,517,1.6677
14.7825,535,1.7258
14.7868,524,1.6903
14.7911,481,1.5516
14.7954,484,1.5613
14.7997,552,1.7806
14.8041,603,1.9452
14.8084,588,1.8968
14.8127,554,1.7871
14.8169,564,1.8194
14.8212,623,2.0097
14.8256,661,2.1323
14.8298,640,2.0645
14.8341,607,1.9581
14.8403,598,1.9290
14.8448,586,1.8903
14.8491,533,1.7194
14.8533,471,1.5194
14.8576,475,1.5323
14.8619,530,1.7097
14.8661,532,1.7161
14.8704,478,1.5419
14.8747,451,1.4548
14.8790,479,1.5452
14.8832,520,1.6774
14.8875,522,1.6839
14.8918,500,1.6129
14.8960,503,1.6226
14.9003,528,1.7032
14.9046,535,1.7258
14.9088,495,1.5968
14.9131,447,1.4419
14.9174,451,1.4548
14.9217,480,1.5484
14.9259,473,1.5258
14.9302,433,1.3968
14.9345,423,1.3645
14.9387,470,1.5161
14.9430,530,1.7097
14.9472,540,1.7419
14.9515,513,1.6548
14.9558,496,1.6000
14.9600,532,1.7161
14.9643,578,1.8645
14.9686,582,1.8774
14.9728,535,1.7258
14.9771,532,1.7161
14.9814,566,1.8258
14.9856,565,1.8226
14.9899,529,1.7065
14.9942,508,1.6387
14.9984,539,1.7387
15.0027,583,1.8806
15.0070,573,1.8484
15.0113,514,1.6581
15.0157,506,1.6323
15.0201,579,1.8677
15.0245,617,1.9903
15.0291,567,1.8290
15.0337,501,1.6161
15.0384,498,1.6065
15.0428,520,1.6774
15.0471,501,1.6161
15.0514,444,1.4323
15.0557,433,1.3968
15.0600,476,1.5355
15.0643,496,1.6000
15.0686,469,1.5129
15.0729,436,1.4065
15.0772,472,1.5226
15.0819,530,1.7097
15.0863,519,1.6742
15.0906,456,1.4710
15.0950,430,1.3871
15.0994,476,1.5355
15.1038,532,1.7161
15.1081,519,1.6742
15.1124,471,1.5194
15.1167,452,1.4581
15.1209,484,1.5613
15.1252,494,1.5935
15.1294,448,1.4452
15.1336,420,1.3548
15.1378,444,1.4323
15.1421,469,1.5129
15.1463,444,1.4323
15.1505,375,1.2097
15.1547,345,1.1129
15.1590,390,1.2581
15.1632,444,1.4323
15.1674,456,1.4710
15.1716,436,1.4065
15.1759,446,1.4387
15.1802,503,1.6226
15.1844,539,1.7387
15.1886,503,1.6226
15.1928,446,1.4387
15.1971,448,1.4452
15.2013,498,1.6065
15.2055,527,1.7000
15.2097,491,1.5839
15.2139,460,1.4839
15.2183,477,1.5387
15.2225,512,1.6516
15.2268,508,1.6387
15.2311,457,1.4742
15.2355,437,1.4097
15.2397,464,1.4968
15.2440,471,1.5194
15.2483,416,1.3419
15.2527,357,1.1516
15.2569,373,1.2032
15.2612,444,1.4323
15.2655,458,1.4774
15.2698,424,1.3677
15.2741,422,1.3613
15.2784,460,1.4839
15.2827,465,1.5000
15.2870,427,1.3774
15.2913,376,1.2129
15.2956,390,1.2581
15.2999,484,1.5613
15.3042,531,1.7129
15.3085,474,1.5290
15.3128,410,1.3226
15.3171,475,1.5323
15.3214,680,2.1935
15.3257,887,2.8613
15.3300,854,2.7548
15.3343,600,1.9355
15.3386,412,1.3290
15.3429,351,1.1323
15.3472,335,1.0806
15.3515,320,1.0323
15.3558,330,1.0645
15.3601,366,1.1806
15.3644,381,1.2290
15.3686,357,1.1516
15.3729,335,1.0806
15.3772,350,1.1290
15.3815,391,1.2613
15.3858,394,1.2710
15.3901,366,1.1806
15.3944,357,1.1516
15.3987,393,1.2677
15.4030,433,1.3968
15.4073,431,1.3903
15.4116,393,1.2677
15.4159,396,1.2774
15.4202,456,1.4710
15.4245,504,1.6258
15.4288,480,1.5484
15.4331,443,1.4290
15.4375,458,1.4774
15.4419,513,1.6548
15.4463,538,1.7355
15.4506,538,1.7355
15.4549,532,1.7161
15.4592,568,1.8323
15.4635,625,2.0161
15.4677,618,1.9935
15.4720,546,1.7613
15.4763,521,1.6806
15.4806,584,1.8839
15.4850,627,2.0226
15.4893,609,1.9645
15.4936,591,1.9065
15.4979,603,1.9452
15.5022,636,2.0516
15.5065,613,1.9774
15.5108,541,1.7452
15.5150,514,1.6581
15.5193,535,1.7258
15.5237,549,1.7710
15.5280,507,1.6355
15.5322,455,1.4677
15.5365,445,1.4355
15.5407,499,1.6097
15.5450,541,1.7452
15.5493,537,1.7323
15.5535,523,1.6871
15.5578,580,1.8710
15.5621,665,2.1452
15.5663,681,2.1968
15.5706,637,2.0548
15.5748,620,2.0000
15.5791,653,2.1065
15.5833,677,2.1839
15.5876,640,2.0645
15.5919,572,1.8452
15.5961,565,1.8226
15.6004,622,2.0065
15.6046,658,2.1226
15.6089,624,2.0129
15.6132,586,1.8903
15.6174,576,1.8581
15.6217,597,1.9258
15.6260,581,1.8742
15.6304,517,1.6677
15.6347,477,1.5387
15.6390,525,1.6935
15.6433,582,1.8774
15.6476,580,1.8710
15.6519,527,1.7000
15.6562,515,1.6613
15.6605,553,1.7839
15.6648,573,1.8484
15.6691,554,1.7871
15.6734,520,1.6774
15.6777,518,1.6710
15.6820,525,1.6935
15.6862,527,1.7000
15.6905,512,1.6516
15.6948,474,1.5290
15.6991,476,1.5355
15.7034,481,1.5516
15.7077,446,1.4387
15.7120,391,1.2613
15.7163,394,1.2710
15.7206,457,1.4742
15.7249,481,1.5516
15.7292,420,1.3548
15.7335,381,1.2290
15.7379,429,1.3839
15.7423,511,1.6484
15.7466,529,1.7065
15.7510,481,1.5516
15.7553,444,1.4323
15.7596,472,1.5226
15.7639,506,1.6323
15.7682,477,1.5387
15.7725,428,1.3806
15.7768,412,1.3290
15.7811,437,1.4097
15.7854,455,1.4677
15.7897,445,1.4355
15.7941,438,1.4129
15.7983,472,1.5226
15.8026,520,1.6774
15.8069,531,1.7129
15.8112,524,1.6903
15.8156,538,1.7355
15.8198,598,1.9290
15.8242,649,2.0935
15.8285,662,2.1355
15.8328,672,2.1677
15.8371,698,2.2516
15.8413,748,2.4129
15.8456,729,2.3516
15.8499,643,2.0742
15.8541,562,1.8129
15.8584,553,1.7839
15.8627,610,1.9677
15.8669,620,2.0000
15.8712,563,1.8161
15.8755,526,1.6968
15.8797,536,1.7290
15.8840,545,1.7581
15.8883,527,1.7000
15.8925,505,1.6290
15.8968,512,1.6516
15.9011,565,1.8226
15.9053,568,1.8323
15.9096,511,1.6484
15.9139,468,1.5097
15.9181,490,1.5806
15.9224,536,1.7290
15.9267,538,1.7355
15.9310,487,1.5710
15.9353,466,1.5032
15.9396,509,1.6419
15.9439,568,1.8323
15.9482,577,1.8613
15.9525,531,1.7129
15.9568,531,1.7129
15.9611,595,1.9194
15.9654,618,1.9935
15.9697,558,1.8000
15.9740,511,1.6484
15.9783,534,1.7226
15.9826,583,1.8806
15.9869,583,1.8806
15.9912,526,1.6968
15.9955,489,1.5774
15.9998,524,1.6903
16.0041,534,1.7226
16.0084,479,1.5452
16.0127,423,1.3645
16.0170,434,1.4000
16.0213,483,1.5581
16.0256,502,1.6194
16.0299,463,1.4935
16.0342,412,1.3290
16.0385,408,1.3161
16.0428,433,1.3968
16.0471,418,1.3484
16.0514,377,1.2161
16.0557,374,1.2065
16.0600,427,1.3774
16.0643,479,1.5452
16.0686,472,1.5226
16.0729,419,1.3516
16.0772,396,1.2774
16.0815,431,1.3903
16.0858,459,1.4806
16.0901,435,1.4032
16.0944,401,1.2935
16.0987,431,1.3903
16.1030,473,1.5258
16.1073,477,1.5387
16.1116,449,1.4484
16.1160,437,1.4097
16.1203,461,1.4871
16.1246,480,1.5484
16.1289,454,1.4645
16.1332,428,1.3806
16.1375,439,1.4161
16.1418,492,1.5871
16.1461,502,1.6194
16.1504,454,1.4645
16.1547,426,1.3742
16.1590,464,1.4968
16.1634,510,1.6452
16.1677,515,1.6613
16.1720,492,1.5871
16.1763,495,1.5968
16.1806,535,1.7258
16.1849,548,1.7677
16.1892,504,1.6258
16.1935,446,1.4387
16.1978,447,1.4419
16.2021,497,1.6032
16.2064,512,1.6516
16.2107,469,1.5129
16.2149,419,1.3516
16.2192,411,1.3258
16.2236,423,1.3645
16.2279,412,1.3290
16.2322,387,1.2484
16.2365,407,1.3129
16.2408,482,1.5548
16.2452,521,1.6806
16.2494,468,1.5097
16.2537,392,1.2645
16.2580,379,1.2226
16.2624,408,1.3161
16.2667,400,1.2903
16.2709,358,1.1548
16.2752,344,1.1097
16.2796,382,1.2323
16.2839,419,1.3516
16.2882,414,1.3355
16.2925,372,1.2000
16.2968,372,1.2000
16.3011,460,1.4839
16.3054,596,1.9226
16.3097,740,2.3871
16.3139,807,2.6032
16.3182,680,2.1935
16.3226,492,1.5871
16.3268,336,1.0839
16.3311,255,0.8226
16.3354,267,0.8613
16.3398,328,1.0581
16.3442,365,1.1774
16.3486,332,1.0710
16.3528,266,0.8581
16.3571,250,0.8065
16.3616,276,0.8903
16.3660,280,0.9032
16.3702,229,0.7387
16.3745,196,0.6323
16.3788,221,0.7129
16.3831,255,0.8226
16.3874,252,0.8129
16.3917,205,0.6613
16.3960,181,0.5839
16.4002,215,0.6935
16.4045,262,0.8452
16.4089,255,0.8226
16.4131,237,0.7645
16.4174,247,0.7968
16.4217,285,0.9194
16.4260,312,1.0065
16.4305,319,1.0290
16.4352,320,1.0323
16.4395,349,1.1258
16.4442,378,1.2194
16.4485,362,1.1677
16.4528,335,1.0806
16.4570,357,1.1516
16.4613,430,1.3871
16.4656,479,1.5452
16.4699,451,1.4548
16.4742,419,1.3516
16.4784,445,1.4355
16.4827,496,1.6000
16.4870,522,1.6839
16.4913,491,1.5839
16.4956,465,1.5000
16.4998,479,1.5452
16.5041,479,1.5452
16.5083,449,1.4484
16.5126,415,1.3387
16.5169,425,1.3710
16.5212,474,1.5290
16.5254,501,1.6161
16.5304,463,1.4935
16.5347,437,1.4097
16.5390,473,1.5258
16.5433,521,1.6806
16.5476,523,1.6871
16.5519,490,1.5806
16.5561,491,1.5839
16.5604,530,1.7097
16.5647,576,1.8581
16.5689,582,1.8774
16.5733,558,1.8000
16.5775,572,1.8452
16.5818,598,1.9290
16.5861,604,1.9484
16.5904,569,1.8355
16.5947,548,1.7677
16.5990,574,1.8516
16.6033,613,1.9774
16.6082,599,1.9323
16.6125,560,1.8065
16.6167,568,1.8323
16.6210,612,1.9742
16.6253,634,2.0452
16.6296,616,1.9871
16.6339,589,1.9000
16.6383,597,1.9258
16.6426,638,2.0581
16.6470,648,2.0903
16.6513,593,1.9129
16.6556,567,1.8290
16.6599,602,1.9419
16.6641,627,2.0226
16.6684,596,1.9226
16.6727,566,1.8258
16.6770,580,1.8710
16.6812,637,2.0548
16.6855,656,2.1161
16.6898,601,1.9387
16.6947,549,1.7710
16.6990,580,1.8710
16.7032,632,2.0387
16.7075,659,2.1258
16.7118,635,2.0484
16.7162,619,1.9968
16.7204,652,2.1032
16.7247,670,2.1613
16.7289,637,2.0548
16.7332,596,1.9226
16.7375,605,1.9516
16.7419,647,2.0871
16.7462,651,2.1000
16.7504,607,1.9581
16.7547,580,1.8710
16.7590,599,1.9323
16.7633,627,2.0226
16.7675,603,1.9452
16.7718,548,1.7677
16.7761,519,1.6742
16.7804,548,1.7677
16.7846,569,1.8355
16.7889,531,1.7129
16.7932,512,1.6516
16.7975,545,1.7581
16.8018,634,2.0452
16.8061,703,2.2677
16.8103,712,2.2968
16.8146,698,2.2516
16.8189,711,2.2935
16.8231,745,2.4032
16.8274,715,2.3065
16.8317,632,2.0387
16.8360,605,1.9516
16.8403,651,2.1000
16.8445,658,2.1226
16.8488,610,1.9677
16.8530,551,1.7774
16.8573,534,1.7226
16.8616,550,1.7742
16.8658,546,1.7613
16.8701,497,1.6032
16.8744,491,1.5839
16.8787,540,1.7419
16.8830,586,1.8903
16.8872,575,1.8548
16.8915,508,1.6387
16.8958,473,1.5258
16.9000,517,1.6677
16.9043,577,1.8613
16.9085,581,1.8742
16.9128,548,1.7677
16.9171,552,1.7806
16.9213,591,1.9065
16.9256,593,1.9129
16.9298,555,1.7903
16.9341,513,1.6548
16.9384,515,1.6613
16.9427,541,1.7452
16.9470,522,1.6839
16.9513,456,1.4710
16.9556,403,1.3000
16.9599,385,1.2419
16.9642,391,1.2613
16.9685,385,1.2419
16.9728,376,1.2129
16.9770,414,1.3355
16.9814,481,1.5516
16.9856,502,1.6194
16.9899,493,1.5903
16.9942,493,1.5903
16.9985,521,1.6806
17.0028,524,1.6903
17.0071,445,1.4355
17.0114,358,1.1548
17.0157,325,1.0484
17.0200,349,1.1258
17.0243,347,1.1194
17.0286,302,0.9742
17.0329,234,0.7548
17.0372,193,0.6226
17.0415,194,0.6258
17.0458,179,0.5774
17.0500,132,0.4258
17.0543,129,0.4161
17.0586,198,0.6387
17.0629,270,0.8710
17.0671,302,0.9742
17.0714,358,1.1548
17.0756,436,1.4065
17.0799,503,1.6226
17.0842,521,1.6806
17.0884,478,1.5419
17.0927,425,1.3710
17.0970,415,1.3387
17.1012,452,1.4581
17.1055,464,1.4968
17.1099,434,1.4000
17.1142,430,1.3871
17.1184,498,1.6065
17.1227,589,1.9000
17.1270,598,1.9290
17.1312,539,1.7387
17.1355,538,1.7355
17.1398,609,1.9645
17.1442,671,2.1645
17.1485,682,2.2000
17.1528,643,2.0742
17.1570,633,2.0419
17.1614,650,2.0968
17.1657,636,2.0516
17.1700,589,1.9000
17.1742,556,1.7935
17.1786,574,1.8516
17.1828,607,1.9581
17.1871,591,1.9065
17.1914,548,1.7677
17.1957,539,1.7387
17.2000,577,1.8613
17.2043,600,1.9355
17.2086,575,1.8548
17.2129,530,1.7097
17.2172,541,1.7452
17.2215,608,1.9613
17.2258,621,2.0032
17.2301,560,1.8065
17.2345,517,1.6677
17.2389,551,1.7774
17.2433,605,1.9516
17.2477,590,1.9032
17.2519,519,1.6742
17.2562,498,1.6065
17.2604,561,1.8097
17.2647,631,2.0355
17.2690,619,1.9968
17.2732,587,1.8935
17.2775,657,2.1194
17.2818,870,2.8065
17.2861,999,3.2226
17.2903,934,3.0129
17.2946,709,2.2871
17.2989,578,1.8645
17.3032,571,1.8419
17.3074,576,1.8581
17.3117,550,1.7742
17.3160,526,1.6968
17.3202,548,1.7677
17.3245,583,1.8806
17.3287,581,1.8742
17.3330,560,1.8065
17.3372,575,1.8548
17.3415,620,2.0000
17.3458,627,2.0226
17.3501,578,1.8645
17.3544,550,1.7742
17.3587,568,1.8323
17.3630,619,1.9968
17.3672,645,2.0806
17.3716,612,1.9742
17.3758,564,1.8194
17.3801,562,1.8129
17.3844,586,1.8903
17.3887,556,1.7935
17.3930,497,1.6032
17.3973,480,1.5484
17.4016,520,1.6774
17.4060,530,1.7097
17.4103,483,1.5581
17.4146,469,1.5129
17.4189,511,1.6484
17.4232,583,1.8806
17.4275,607,1.9581
17.4318,576,1.8581
17.4361,575,1.8548
17.4404,650,2.0968
17.4447,713,2.3000
17.4490,701,2.2613
17.4533,666,2.1484
17.4576,669,2.1581
17.4619,669,2.1581
17.4662,634,2.0452
17.4705,560,1.8065
17.4748,538,1.7355
17.4791,598,1.9290
17.4834,679,2.1903
17.4877,687,2.2161
17.4920,640,2.0645
17.4963,639,2.0613
17.5006,693,2.2355
17.5049,693,2.2355
17.5091,644,2.0774
17.5135,598,1.9290
17.5177,600,1.9355
17.5220,624,2.0129
17.5263,615,1.9839
17.5306,555,1.7903
17.5349,515,1.6613
17.5393,533,1.7194
17.5437,549,1.7710
17.5481,529,1.7065
17.5524,489,1.5774
17.5568,495,1.5968
17.5611,558,1.8000
17.5654,583,1.8806
17.5697,530,1.7097
17.5740,481,1.5516
17.5783,518,1.6710
17.5825,605,1.9516
17.5868,656,2.1161
17.5911,610,1.9677
17.5954,568,1.8323
17.5997,609,1.9645
17.6040,670,2.1613
17.6083,679,2.1903
17.6127,669,2.1581
17.6170,707,2.2806
17.6213,756,2.4387
17.6256,737,2.3774
17.6298,672,2.1677
17.6342,641,2.0677
17.6385,694,2.2387
17.6428,756,2.4387
17.6471,750,2.4194
17.6513,695,2.2419
17.6556,667,2.1516
17.6598,707,2.2806
17.6641,755,2.4355
17.6684,747,2.4097
17.6726,714,2.3032
17.6769,734,2.3677
17.6811,788,2.5419
17.6854,739,2.3839
17.6896,567,1.8290
17.6939,403,1.3000
17.6982,344,1.1097
17.7025,390,1.2581
17.7067,401,1.2935
17.7110,341,1.1000
17.7152,318,1.0258
17.7195,336,1.0839
17.7238,349,1.1258
17.7280,314,1.0129
17.7323,244,0.7871
17.7365,209,0.6742
17.7408,236,0.7613
17.7451,259,0.8355
17.7494,240,0.7742
17.7537,215,0.6935
17.7580,249,0.8032
17.7623,305,0.9839
17.7666,296,0.9548
17.7709,246,0.7935
17.7752,220,0.7097
17.7795,272,0.8774
17.7837,330,1.0645
17.7880,330,1.0645
17.7923,304,0.9806
17.7966,318,1.0258
17.8009,379,1.2226
17.8052,404,1.3032
17.8095,350,1.1290
17.8138,319,1.0290
17.8181,354,1.1419
17.8224,422,1.3613
17.8267,467,1.5065
17.8310,434,1.4000
17.8353,382,1.2323
17.8396,380,1.2258
17.8440,413,1.3323
17.8483,391,1.2613
17.8526,345,1.1129
17.8569,367,1.1839
17.8612,451,1.4548
17.8655,486,1.5677
17.8698,442,1.4258
17.8741,416,1.3419
17.8784,464,1.4968
17.8827,539,1.7387
17.8870,551,1.7774
17.8913,507,1.6355
17.8956,480,1.5484
17.9000,514,1.6581
17.9042,553,1.7839
17.9085,549,1.7710
17.9128,504,1.6258
17.9172,515,1.6613
17.9215,578,1.8645
17.9258,594,1.9161
17.9301,532,1.7161
17.9344,481,1.5516
17.9387,519,1.6742
17.9430,584,1.8839
17.9473,581,1.8742
17.9516,508,1.6387
17.9559,472,1.5226
17.9603,512,1.6516
17.9646,542,1.7484
17.9689,510,1.6452
17.9732,462,1.4903
17.9775,492,1.5871
17.9818,562,1.8129
17.9861,571,1.8419
17.9904,504,1.6258
17.9947,463,1.4935
17.9990,510,1.6452
18.0033,588,1.8968
18.0077,598,1.9290
18.0120,543,1.7516
18.0163,521,1.6806
18.0206,561,1.8097
18.0249,599,1.9323
18.0292,594,1.9161
18.0335,569,1.8355
18.0378,599,1.9323
18.0421,659,2.1258
18.0464,663,2.1387
18.0507,587,1.8935
18.0551,535,1.7258
18.0594,572,1.8452
18.0637,618,1.9935
18.0680,609,1.9645
18.0723,554,1.7871
18.0766,539,1.7387
18.0809,572,1.8452
18.0852,585,1.8871
18.0895,554,1.7871
18.0938,520,1.6774
18.0981,534,1.7226
18.1024,572,1.8452
18.1067,587,1.8935
18.1110,553,1.7839
18.1153,537,1.7323
18.1196,581,1.8742
18.1240,626,2.0194
18.1283,607,1.9581
18.1326,522,1.6839
18.1369,449,1.4484
18.1413,421,1.3581
18.1457,375,1.2097
18.1500,274,0.8839
18.1543,203,0.6548
18.1586,242,0.7806
18.1628,296,0.9548
18.1671,294,0.9484
18.1713,287,0.9258
18.1756,401,1.2935
18.1798,631,2.0355
18.1841,668,2.1548
18.1883,431,1.3903
18.1926,192,0.6194
18.1971,136,0.4387
18.2014,236,0.7613
18.2058,284,0.9161
18.2101,222,0.7161
18.2144,140,0.4516
18.2187,154,0.4968
18.2230,226,0.7290
18.2273,240,0.7742
18.2316,193,0.6226
18.2360,172,0.5548
18.2403,204,0.6581
18.2446,251,0.8097
18.2489,245,0.7903
18.2533,215,0.6935
18.2576,269,0.8677
18.2619,383,1.2355
18.2663,423,1.3645
18.2706,369,1.1903
18.2749,330,1.0645
18.2793,372,1.2000
18.2836,438,1.4129
18.2879,454,1.4645
18.2923,424,1.3677
18.2966,433,1.3968
18.3009,507,1.6355
18.3053,556,1.7935
18.3096,530,1.7097
18.3140,478,1.5419
18.3183,476,1.5355
18.3226,503,1.6226
18.3269,497,1.6032
18.3313,425,1.3710
18.3356,383,1.2355
18.3399,400,1.2903
18.3443,426,1.3742
18.3486,421,1.3581
18.3529,389,1.2548
18.3572,377,1.2161
18.3615,404,1.3032
18.3658,402,1.2968
18.3701,344,1.1097
18.3744,304,0.9806
18.3787,346,1.1161
18.3830,409,1.3194
18.3873,413,1.3323
18.3916,364,1.1742
18.3959,341,1.1000
18.4002,376,1.2129
18.4045,419,1.3516
18.4088,412,1.3290
18.4131,373,1.2032
18.4174,375,1.2097
18.4217,422,1.3613
18.4260,438,1.4129
18.4303,403,1.3000
18.4346,395,1.2742
18.4390,450,1.4516
18.4434,505,1.6290
18.4478,489,1.5774
18.4522,424,1.3677
18.4565,407,1.3129
18.4608,455,1.4677
18.4651,487,1.5710
18.4694,450,1.4516
18.4737,408,1.3161
18.4780,436,1.4065
18.4823,492,1.5871
18.4866,499,1.6097
18.4909,456,1.4710
18.4952,431,1.3903
18.4995,468,1.5097
18.5038,523,1.6871
18.5081,543,1.7516
18.5124,504,1.6258
18.5167,484,1.5613
18.5210,524,1.6903
18.5253,549,1.7710
18.5296,521,1.6806
18.5339,473,1.5258
18.5382,482,1.5548
18.5425,531,1.7129
18.5468,520,1.6774
18.5511,460,1.4839
18.5554,439,1.4161
18.5598,481,1.5516
18.5641,535,1.7258
18.5684,526,1.6968
18.5728,481,1.5516
18.5771,474,1.5290
18.5814,520,1.6774
18.5858,540,1.7419
18.5901,489,1.5774
18.5944,449,1.4484
18.5988,478,1.5419
18.6031,529,1.7065
18.6074,544,1.7548
18.6118,525,1.6935
18.6162,541,1.7452
18.6205,589,1.9000
18.6249,599,1.9323
18.6292,560,1.8065
18.6335,508,1.6387
18.6379,501,1.6161
18.6422,560,1.8065
18.6465,592,1.9097
18.6508,546,1.7613
18.6552,519,1.6742
18.6595,560,1.8065
18.6638,612,1.9742
18.6681,592,1.9097
18.6723,537,1.7323
18.6766,542,1.7484
18.6809,599,1.9323
18.6852,629,2.0290
18.6895,573,1.8484
18.6938,512,1.6516
18.6981,539,1.7387
18.7024,621,2.0032
18.7067,643,2.0742
18.7110,607,1.9581
18.7153,603,1.9452
18.7196,645,2.0806
18.7239,673,2.1710
18.7282,645,2.0806
18.7325,587,1.8935
18.7368,567,1.8290
18.7411,619,1.9968
18.7454,667,2.1516
18.7497,636,2.0516
18.7540,580,1.8710
18.7584,559,1.8032
18.7627,571,1.8419
18.7670,538,1.7355
18.7714,518,1.6710
18.7757,542,1.7484
18.7800,586,1.8903
18.7844,607,1.9581
18.7887,562,1.8129
18.7930,479,1.5452
18.7973,447,1.4419
18.8017,485,1.5645
18.8061,503,1.6226
18.8104,463,1.4935
18.8147,435,1.4032
18.8189,473,1.5258
18.8232,524,1.6903
18.8275,501,1.6161
18.8318,427,1.3774
18.8361,402,1.2968
18.8404,442,1.4258
18.8447,467,1.5065
18.8490,425,1.3710
18.8532,376,1.2129
18.8575,384,1.2387
18.8618,430,1.3871
18.8661,445,1.4355
18.8704,405,1.3065
18.8747,367,1.1839
18.8790,402,1.2968
18.8833,447,1.4419
18.8876,438,1.4129
18.8918,386,1.2452
18.8961,397,1.2806
18.9004,462,1.4903
18.9047,475,1.5323
18.9090,404,1.3032
18.9133,314,1.0129
18.9176,302,0.9742
18.9219,371,1.1968
18.9262,425,1.3710
18.9305,410,1.3226
18.9348,384,1.2387
18.9391,433,1.3968
18.9434,498,1.6065
18.9477,492,1.5871
18.9520,446,1.4387
18.9563,444,1.4323
18.9606,522,1.6839
18.9649,574,1.8516
18.9691,544,1.7548
18.9735,500,1.6129
18.9777,523,1.6871
18.9820,613,1.9774
18.9863,656,2.1161
18.9906,624,2.0129
18.9949,592,1.9097
18.9992,621,2.0032
19.0035,684,2.2065
19.0078,720,2.3226
19.0121,719,2.3194
19.0165,709,2.2871
19.0207,746,2.4065
19.0251,787,2.5387
19.0293,770,2.4839
19.0336,717,2.3129
19.0380,729,2.3516
19.0424,781,2.5194
19.0468,753,2.4290
19.0511,658,2.1226
19.0554,614,1.9806
19.0597,647,2.0871
19.0639,696,2.2452
19.0682,677,2.1839
19.0725,595,1.9194
19.0767,540,1.7419
19.0810,563,1.8161
19.0853,588,1.8968
19.0895,541,1.7452
19.0938,468,1.5097
19.0981,456,1.4710
19.1023,520,1.6774
19.1066,590,1.9032
19.1109,573,1.8484
19.1151,534,1.7226
19.1194,541,1.7452
19.1237,565,1.8226
19.1279,532,1.7161
19.1322,476,1.5355
19.1364,468,1.5097
19.1407,530,1.7097
19.1449,604,1.9484
19.1492,700,2.2581
19.1535,829,2.6742
19.1578,856,2.7613
19.1622,706,2.2774
19.1665,535,1.7258
19.1708,420,1.3548
19.1752,398,1.2839
19.1795,448,1.4452
19.1838,503,1.6226
19.1882,486,1.5677
19.1925,437,1.4097
19.1968,445,1.4355
19.2012,492,1.5871
19.2055,516,1.6645
19.2099,495,1.5968
19.2142,476,1.5355
19.2185,492,1.5871
19.2229,524,1.6903
19.2272,525,1.6935
19.2315,475,1.5323
19.2359,450,1.4516
19.2402,486,1.5677
19.2445,512,1.6516
19.2489,508,1.6387
19.2532,508,1.6387
19.2575,513,1.6548
19.2618,539,1.7387
19.2661,527,1.7000
19.2704,473,1.5258
19.2747,438,1.4129
19.2790,461,1.4871
19.2833,540,1.7419
19.2876,583,1.8806
19.2919,534,1.7226
19.2962,505,1.6290
19.3004,538,1.7355
19.3047,566,1.8258
19.3091,550,1.7742
19.3134,486,1.5677
19.3177,465,1.5000
19.3220,512,1.6516
19.3263,541,1.7452
19.3306,500,1.6129
19.3349,473,1.5258
19.3393,527,1.7000
19.3437,600,1.9355
19.3481,608,1.9613
19.3524,566,1.8258
19.3567,541,1.7452
19.3610,593,1.9129
19.3653,617,1.9903
19.3696,559,1.8032
19.3739,500,1.6129
19.3782,493,1.5903
19.3825,531,1.7129
19.3868,563,1.8161
19.3911,568,1.8323
19.3954,569,1.8355
19.3997,602,1.9419
19.4040,651,2.1000
19.4083,648,2.0903
19.4127,610,1.9677
19.4170,615,1.9839
19.4212,653,2.1065
19.4255,655,2.1129
19.4298,602,1.9419
19.4341,535,1.7258
19.4384,513,1.6548
19.4427,526,1.6968
19.4470,526,1.6968
19.4513,472,1.5226
19.4556,430,1.3871
19.4599,466,1.5032
19.4642,515,1.6613
19.4685,497,1.6032
19.4728,430,1.3871
19.4771,415,1.3387
19.4814,480,1.5484
19.4857,509,1.6419
19.4900,472,1.5226
19.4943,414,1.3355
19.4986,396,1.2774
19.5029,468,1.5097
19.5071,534,1.7226
19.5115,524,1.6903
19.5158,513,1.6548
19.5201,536,1.7290
19.5244,529,1.7065
19.5287,470,1.5161
19.5330,425,1.3710
19.5373,421,1.3581
19.5415,454,1.4645
19.5458,465,1.5000
19.5501,398,1.2839
19.5544,331,1.0677
19.5588,343,1.1065
19.5631,388,1.2516
19.5674,374,1.2065
19.5718,295,0.9516
19.5762,265,0.8548
19.5805,333,1.0742
19.5848,391,1.2613
19.5891,372,1.2000
19.5935,346,1.1161
19.5978,383,1.2355
19.6021,427,1.3774
19.6065,415,1.3387
19.6108,335,1.0806
19.6152,260,0.8387
19.6195,263,0.8484
19.6239,310,1.0000
19.6282,304,0.9806
19.6325,260,0.8387
19.6368,296,0.9548
19.6412,388,1.2516
19.6455,432,1.3935
19.6498,386,1.2452
19.6542,310,1.0000
19.6585,308,0.9935
19.6628,362,1.1677
19.6671,380,1.2258
19.6714,354,1.1419
19.6757,348,1.1226
19.6800,396,1.2774
19.6843,476,1.5355
19.6886,492,1.5871
19.6929,447,1.4419
19.6972,443,1.4290
19.7015,508,1.6387
19.7058,522,1.6839
19.7101,449,1.4484
19.7144,386,1.2452
19.7187,395,1.2742
19.7230,471,1.5194
19.7273,515,1.6613
19.7316,457,1.4742
19.7358,424,1.3677
19.7401,452,1.4581
19.7444,498,1.6065
19.7487,498,1.6065
19.7530,459,1.4806
19.7573,454,1.4645
19.7617,503,1.6226
19.7661,524,1.6903
19.7704,471,1.5194
19.7747,415,1.3387
19.7791,424,1.3677
19.7834,485,1.5645
19.7877,490,1.5806
19.7921,429,1.3839
19.7964,402,1.2968
19.8007,446,1.4387
19.8051,485,1.5645
19.8094,449,1.4484
19.8137,403,1.3000
19.8181,420,1.3548
19.8224,481,1.5516
19.8268,492,1.5871
19.8311,417,1.3452
19.8354,343,1.1065
19.8397,353,1.1387
19.8441,407,1.3129
19.8484,423,1.3645
19.8527,385,1.2419
19.8571,376,1.2129
19.8614,419,1.3516
19.8657,460,1.4839
19.8700,437,1.4097
19.8743,395,1.2742
19.8785,408,1.3161
19.8829,465,1.5000
19.8871,479,1.5452
19.8914,454,1.4645
19.8957,437,1.4097
19.9000,451,1.4548
19.9043,480,1.5484
19.9086,471,1.5194
19.9129,432,1.3935
19.9172,428,1.3806
19.9215,486,1.5677
19.9258,517,1.6677
19.9301,486,1.5677
19.9345,441,1.4226
19.9389,457,1.4742
19.9433,492,1.5871
19.9477,477,1.5387
19.9520,416,1.3419
19.9563,397,1.2806
19.9606,462,1.4903
19.9653,538,1.7355
19.9697,514,1.6581
19.9741,460,1.4839
19.9784,474,1.5290
19.9827,529,1.7065
19.9871,526,1.6968
19.9914,465,1.5000
19.9957,428,1.3806
20.0001,463,1.4935
20.0044,507,1.6355
20.0088,485,1.5645
20.0137,440,1.4194
20.0181,465,1.5000
20.0320,504,1.6258
20.0365,489,1.5774
20.0411,533,1.7194
20.0455,571,1.8419
20.0499,570,1.8387
20.0542,545,1.7581
20.0585,560,1.8065
20.0629,600,1.9355
20.0672,566,1.8258
20.0714,467,1.5065
20.0757,423,1.3645
20.0799,483,1.5581
20.0842,530,1.7097
20.0884,488,1.5742
20.0927,413,1.3323
20.0969,395,1.2742
20.1013,459,1.4806
20.1057,556,1.7935
20.1101,677,2.1839
20.1144,818,2.6387
20.1186,828,2.6710
20.1229,653,2.1065
20.1271,459,1.4806
20.1314,340,1.0968
20.1356,345,1.1129
20.1398,437,1.4097
20.1441,499,1.6097
20.1483,468,1.5097
20.1526,400,1.2903
20.1569,387,1.2484
20.1612,433,1.3968
20.1655,464,1.4968
20.1698,432,1.3935
20.1741,382,1.2323
20.1784,397,1.2806
20.1828,457,1.4742
20.1871,483,1.5581
20.1914,445,1.4355
20.1957,428,1.3806
20.2000,485,1.5645
20.2043,537,1.7323
20.2086,503,1.6226
20.2130,430,1.3871
20.2173,402,1.2968
20.2215,447,1.4419
20.2259,477,1.5387
20.2302,455,1.4677
20.2352,423,1.3645
20.2409,483,1.5581
20.2453,540,1.7419
20.2497,527,1.7000
20.2540,478,1.5419
20.2584,483,1.5581
20.2627,539,1.7387
20.2670,565,1.8226
20.2713,527,1.7000
20.2755,503,1.6226
20.2797,531,1.7129
20.2840,592,1.9097
20.2883,599,1.9323
20.2925,542,1.7484
20.2968,507,1.6355
20.3011,543,1.7516
20.3054,581,1.8742
20.3100,537,1.7323
20.3143,464,1.4968
20.3186,458,1.4774
20.3228,504,1.6258
20.3271,518,1.6710
20.3314,468,1.5097
20.3356,417,1.3452
20.3399,440,1.4194
20.3441,500,1.6129
20.3484,508,1.6387
20.3526,473,1.5258
20.3569,477,1.5387
20.3611,538,1.7355
20.3654,574,1.8516
20.3697,537,1.7323
20.3740,487,1.5710
20.3782,502,1.6194
20.3825,561,1.8097
20.3867,582,1.8774
20.3910,521,1.6806
20.3953,466,1.5032
20.3995,495,1.5968
20.4038,560,1.8065
20.4081,573,1.8484
20.4124,514,1.6581
20.4167,469,1.5129
20.4209,509,1.6419
20.4252,571,1.8419
20.4294,572,1.8452
20.4337,513,1.6548
20.4380,494,1.5935
20.4422,532,1.7161
20.4465,557,1.7968
20.4508,515,1.6613
20.4550,483,1.5581
20.4593,538,1.7355
20.4635,589,1.9000
20.4679,561,1.8097
20.4722,491,1.5839
20.4765,491,1.5839
20.4809,566,1.8258
20.4852,604,1.9484
20.4895,563,1.8161
20.4938,513,1.6548
20.4982,518,1.6710
20.5025,552,1.7806
20.5068,548,1.7677
20.5112,513,1.6548
20.5155,497,1.6032
20.5199,538,1.7355
20.5242,598,1.9290
20.5285,569,1.8355
20.5329,488,1.5742
20.5372,451,1.4548
20.5415,521,1.6806
20.5458,578,1.8645
20.5502,531,1.7129
20.5545,470,1.5161
20.5588,482,1.5548
20.5632,577,1.8613
20.5675,602,1.9419
20.5718,520,1.6774
20.5761,454,1.4645
20.5804,462,1.4903
20.5847,502,1.6194
20.5890,481,1.5516
20.5933,419,1.3516
20.5976,397,1.2806
20.6018,426,1.3742
20.6061,457,1.4742
20.6104,479,1.5452
20.6147,503,1.6226
20.6191,544,1.7548
20.6234,603,1.9452
20.6277,609,1.9645
20.6319,537,1.7323
20.6362,465,1.5000
20.6405,481,1.5516
20.6448,515,1.6613
20.6491,480,1.5484
20.6534,424,1.3677
20.6577,423,1.3645
20.6621,478,1.5419
20.6664,504,1.6258
20.6707,459,1.4806
20.6751,410,1.3226
20.6794,397,1.2806
20.6837,430,1.3871
20.6881,433,1.3968
20.6924,383,1.2355
20.6967,369,1.1903
20.7010,415,1.3387
20.7054,454,1.4645
20.7098,461,1.4871
20.7141,446,1.4387
20.7185,473,1.5258
20.7229,523,1.6871
20.7272,514,1.6581
20.7315,444,1.4323
20.7359,444,1.4323
20.7403,515,1.6613
20.7446,541,1.7452
20.7489,519,1.6742
20.7533,483,1.5581
20.7576,489,1.5774
20.7619,538,1.7355
20.7663,542,1.7484
20.7706,483,1.5581
20.7748,436,1.4065
20.7791,448,1.4452
20.7834,522,1.6839
20.7877,566,1.8258
20.7920,540,1.7419
20.7963,518,1.6710
20.8006,560,1.8065
20.8049,597,1.9258
20.8092,577,1.8613
20.8135,534,1.7226
20.8178,538,1.7355
20.8221,576,1.8581
20.8264,589,1.9000
20.8307,562,1.8129
20.8354,542,1.7484
20.8402,600,1.9355
20.8446,650,2.0968
20.8490,639,2.0613
20.8533,571,1.8419
20.8576,541,1.7452
20.8619,578,1.8645
20.8662,600,1.9355
20.8706,546,1.7613
20.8748,488,1.5742
20.8792,500,1.6129
20.8835,548,1.7677
20.8878,544,1.7548
20.8921,489,1.5774
20.8964,466,1.5032
20.9007,512,1.6516
20.9050,542,1.7484
20.9093,515,1.6613
20.9136,500,1.6129
20.9179,551,1.7774
20.9225,617,1.9903
20.9268,617,1.9903
20.9311,560,1.8065
20.9354,531,1.7129
20.9397,563,1.8161
20.9440,603,1.9452
20.9483,579,1.8677
20.9526,512,1.6516
20.9569,495,1.5968
20.9612,566,1.8258
20.9656,622,2.0065
20.9699,607,1.9581
20.9742,596,1.9226
20.9785,700,2.2581
20.9828,936,3.0194
20.9871,999,3.2226
20.9914,942,3.0387
20.9957,670,2.1613
21.0000,497,1.6032
21.0046,504,1.6258
21.0089,522,1.6839
21.0132,492,1.5871
21.0175,483,1.5581
21.0218,518,1.6710
21.0261,546,1.7613
21.0304,539,1.7387
21.0347,526,1.6968
21.0390,550,1.7742
21.0433,565,1.8226
21.0476,501,1.6161
21.0519,399,1.2871
21.0562,359,1.1581
21.0605,388,1.2516
21.0648,420,1.3548
21.0691,393,1.2677
21.0735,332,1.0710
21.0778,325,1.0484
21.0820,370,1.1935
21.0866,399,1.2871
21.0909,363,1.1710
21.0952,323,1.0419
21.0995,337,1.0871
21.1038,385,1.2419
21.1081,394,1.2710
21.1124,357,1.1516
21.1169,370,1.1935
21.1212,443,1.4290
21.1255,494,1.5935
21.1298,466,1.5032
21.1343,423,1.3645
21.1387,427,1.3774
21.1431,473,1.5258
21.1484,480,1.5484
21.1527,433,1.3968
21.1571,401,1.2935
21.1614,444,1.4323
21.1657,483,1.5581
21.1700,464,1.4968
21.1744,433,1.3968
21.1787,452,1.4581
21.1829,490,1.5806
21.1872,500,1.6129
21.1915,459,1.4806
21.1959,435,1.4032
21.2001,475,1.5323
21.2044,509,1.6419
21.2087,490,1.5806
21.2130,473,1.5258
21.2174,480,1.5484
21.2221,552,1.7806
21.2264,598,1.9290
21.2307,552,1.7806
21.2350,513,1.6548
21.2393,555,1.7903
21.2436,619,1.9968
21.2479,615,1.9839
21.2522,554,1.7871
21.2566,517,1.6677
21.2609,547,1.7645
21.2651,578,1.8645
21.2694,560,1.8065
21.2738,507,1.6355
21.2781,509,1.6419
21.2824,577,1.8613
21.2867,617,1.9903
21.2909,578,1.8645
21.2958,528,1.7032
21.3001,546,1.7613
21.3044,585,1.8871
21.3087,565,1.8226
21.3130,507,1.6355
21.3173,476,1.5355
21.3217,510,1.6452
21.3260,537,1.7323
21.3303,511,1.6484
21.3346,465,1.5000
21.3389,479,1.5452
21.3432,535,1.7258
21.3475,542,1.7484
21.3518,495,1.5968
21.3561,483,1.5581
21.3604,542,1.7484
21.3647,594,1.9161
21.3690,573,1.8484
21.3733,506,1.6323
21.3777,484,1.5613
21.3820,544,1.7548
21.3862,561,1.8097
21.3905,514,1.6581
21.3948,487,1.5710
21.3991,523,1.6871
21.4034,584,1.8839
21.4077,589,1.9000
21.4120,531,1.7129
21.4163,514,1.6581
21.4207,545,1.7581
21.4250,573,1.8484
21.4293,551,1.7774
21.4336,494,1.5935
21.4379,453,1.4613
21.4422,468,1.5097
21.4465,467,1.5065
21.4508,405,1.3065
21.4551,372,1.2000
21.4594,445,1.4355
21.4637,545,1.7581
21.4680,580,1.8710
21.4722,549,1.7710
21.4766,521,1.6806
21.4809,561,1.8097
21.4852,613,1.9774
21.4895,595,1.9194
21.4938,525,1.6935
21.4981,499,1.6097
21.5024,558,1.8000
21.5067,594,1.9161
21.5110,555,1.7903
21.5153,532,1.7161
21.5201,575,1.8548
21.5244,638,2.0581
21.5287,639,2.0613
21.5330,602,1.9419
21.5373,597,1.9258
21.5416,679,2.1903
21.5460,745,2.4032
21.5503,721,2.3258
21.5546,659,2.1258
21.5589,680,2.1935
21.5632,742,2.3935
21.5675,754,2.4323
21.5718,687,2.2161
21.5761,642,2.0710
21.5804,654,2.1097
21.5847,680,2.1935
21.5890,651,2.1000
21.5933,599,1.9323
21.5976,572,1.8452
21.6020,585,1.8871
21.6062,596,1.9226
21.6105,561,1.8097
21.6148,539,1.7387
21.6191,583,1.8806
21.6235,653,2.1065
21.6278,671,2.1645
21.6321,626,2.0194
21.6364,594,1.9161
21.6407,614,1.9806
21.6450,656,2.1161
21.6493,660,2.1290
21.6536,632,2.0387
21.6578,617,1.9903
21.6621,658,2.1226
21.6665,693,2.2355
21.6708,635,2.0484
21.6751,577,1.8613
21.6794,604,1.9484
21.6838,669,2.1581
21.6880,686,2.2129
21.6923,662,2.1355
21.6966,657,2.1194
21.7009,695,2.2419
21.7052,728,2.3484
21.7095,702,2.2645
21.7138,659,2.1258
21.7181,662,2.1355
21.7224,725,2.3387
21.7268,754,2.4323
21.7311,694,2.2387
21.7354,621,2.0032
21.7400,631,2.0355
21.7444,687,2.2161
21.7492,677,2.1839
21.7536,632,2.0387
21.7578,635,2.0484
21.7621,692,2.2323
21.7665,700,2.2581
21.7708,623,2.0097
21.7751,552,1.7806
21.7793,546,1.7613
21.7836,586,1.8903
21.7879,590,1.9032
21.7921,536,1.7290
21.7964,508,1.6387
21.8007,533,1.7194
21.8050,557,1.7968
21.8092,525,1.6935
21.8135,482,1.5548
21.8178,484,1.5613
21.8220,539,1.7387
21.8263,580,1.8710
21.8306,542,1.7484
21.8349,486,1.5677
21.8391,501,1.6161
21.8434,563,1.8161
21.8477,569,1.8355
21.8519,505,1.6290
21.8562,478,1.5419
21.8605,528,1.7032
21.8647,555,1.7903
21.8690,523,1.6871
21.8733,463,1.4935
21.8776,468,1.5097
21.8819,515,1.6613
21.8862,557,1.7968
21.8905,586,1.8903
21.8948,712,2.2968
21.8991,887,2.8613
21.9034,854,2.7548
21.9078,630,2.0323
21.9121,395,1.2742
21.9164,314,1.0129
21.9207,391,1.2613
21.9250,478,1.5419
21.9293,470,1.5161
21.9336,409,1.3194
21.9379,393,1.2677
21.9422,439,1.4161
21.9465,454,1.4645
21.9508,422,1.3613
21.9551,390,1.2581
21.9594,414,1.3355
21.9637,453,1.4613
21.9680,462,1.4903
21.9724,434,1.4000
21.9768,420,1.3548
21.9811,449,1.4484
21.9854,476,1.5355
21.9897,456,1.4710
21.9939,400,1.2903
21.9982,374,1.2065
22.0026,397,1.2806
22.0069,387,1.2484
22.0112,335,1.0806
22.0155,327,1.0548
22.0198,376,1.2129
22.0241,416,1.3419
22.0284,407,1.3129
22.0327,357,1.1516
22.0370,349,1.1258
22.0414,415,1.3387
22.0458,473,1.5258
22.0501,447,1.4419
22.0545,395,1.2742
22.0588,400,1.2903
22.0631,461,1.4871
22.0674,498,1.6065
22.0717,469,1.5129
22.0761,438,1.4129
22.0804,465,1.5000
22.0846,499,1.6097
22.0889,473,1.5258
22.0932,423,1.3645
22.0974,427,1.3774
22.1017,464,1.4968
22.1060,479,1.5452
22.1102,450,1.4516
22.1145,400,1.2903
22.1188,413,1.3323
22.1230,463,1.4935
22.1273,468,1.5097
22.1316,422,1.3613
22.1358,401,1.2935
22.1401,426,1.3742
22.1444,457,1.4742
22.1487,460,1.4839
22.1529,425,1.3710
22.1572,415,1.3387
22.1615,468,1.5097
22.1657,509,1.6419
22.1700,472,1.5226
22.1742,426,1.3742
22.1785,432,1.3935
22.1828,492,1.5871
22.1871,524,1.6903
22.1914,491,1.5839
22.1957,458,1.4774
22.2000,490,1.5806
22.2044,530,1.7097
22.2087,523,1.6871
22.2130,455,1.4677
22.2173,417,1.3452
22.2216,463,1.4935
22.2259,513,1.6548
22.2302,496,1.6000
22.2345,456,1.4710
22.2388,475,1.5323
22.2431,536,1.7290
22.2474,556,1.7935
22.2518,515,1.6613
22.2561,482,1.5548
22.2604,512,1.6516
22.2647,549,1.7710
22.2690,533,1.7194
22.2733,467,1.5065
22.2776,447,1.4419
22.2819,489,1.5774
22.2862,514,1.6581
22.2904,484,1.5613
22.2947,436,1.4065
22.2990,444,1.4323
22.3033,504,1.6258
22.3075,530,1.7097
22.3118,512,1.6516
22.3161,499,1.6097
22.3203,539,1.7387
22.3246,606,1.9548
22.3289,600,1.9355
22.3332,543,1.7516
22.3374,529,1.7065
22.3417,581,1.8742
22.3460,622,2.0065
22.3503,601,1.9387
22.3546,573,1.8484
22.3588,599,1.9323
22.3631,660,2.1290
22.3674,682,2.2000
22.3716,637,2.0548
22.3760,600,1.9355
22.3803,637,2.0548
22.3846,684,2.2065
22.3889,679,2.1903
22.3932,635,2.0484
22.3975,631,2.0355
22.4018,664,2.1419
22.4061,676,2.1806
22.4104,643,2.0742
22.4147,607,1.9581
22.4190,625,2.0161
22.4233,675,2.1774
22.4276,672,2.1677
22.4319,591,1.9065
22.4362,528,1.7032
22.4405,554,1.7871
22.4448,610,1.9677
22.4492,607,1.9581
22.4535,549,1.7710
22.4578,525,1.6935
22.4621,561,1.8097
22.4664,590,1.9032
22.4707,561,1.8097
22.4750,517,1.6677
22.4793,543,1.7516
22.4836,614,1.9806
22.4879,610,1.9677
22.4921,562,1.8129
22.4964,540,1.7419
22.5007,547,1.7645
22.5050,550,1.7742
22.5092,514,1.6581
22.5135,452,1.4581
22.5178,429,1.3839
22.5220,460,1.4839
22.5263,475,1.5323
22.5306,418,1.3484
22.5348,366,1.1806
22.5391,394,1.2710
22.5434,460,1.4839
22.5476,466,1.5032
22.5519,393,1.2677
22.5562,347,1.1194
22.5605,369,1.1903
22.5647,398,1.2839
22.5690,386,1.2452
22.5733,332,1.0710
22.5775,301,0.9710
22.5818,330,1.0645
22.5861,356,1.1484
22.5904,325,1.0484
22.5947,272,0.8774
22.5990,273,0.8806
22.6033,332,1.0710
22.6076,353,1.1387
22.6120,318,1.0258
22.6163,326,1.0516
22.6206,392,1.2645
22.6249,427,1.3774
22.6292,378,1.2194
22.6335,309,0.9968
22.6378,267,0.8613
22.6423,285,0.9194
22.6467,286,0.9226
22.6511,251,0.8097
22.6554,206,0.6645
22.6597,220,0.7097
22.6640,290,0.9355
22.6683,317,1.0226
22.6726,293,0.9452
22.6770,279,0.9000
22.6813,316,1.0194
22.6856,352,1.1355
22.6899,332,1.0710
22.6941,307,0.9903
22.6984,320,1.0323
22.7027,394,1.2710
22.7069,431,1.3903
22.7112,383,1.2355
22.7155,342,1.1032
22.7198,362,1.1677
22.7240,399,1.2871
22.7283,371,1.1968
22.7327,274,0.8839
22.7370,234,0.7548
22.7415,284,0.9161
22.7458,320,1.0323
22.7501,285,0.9194
22.7544,237,0.7645
22.7587,281,0.9065
22.7630,391,1.2613
22.7673,434,1.4000
22.7716,370,1.1935
22.7759,302,0.9742
22.7802,314,1.0129
22.7845,377,1.2161
22.7888,400,1.2903
22.7931,372,1.2000
22.7974,371,1.1968
22.8017,426,1.3742
22.8060,461,1.4871
22.8104,428,1.3806
22.8147,396,1.2774
22.8190,413,1.3323
22.8233,456,1.4710
22.8276,482,1.5548
22.8319,467,1.5065
22.8362,475,1.5323
22.8405,557,1.7968
22.8448,728,2.3484
22.8491,948,3.0581
22.8534,971,3.1323
22.8577,748,2.4129
22.8620,566,1.8258
22.8663,487,1.5710
22.8706,464,1.4968
22.8749,472,1.5226
22.8793,505,1.6290
22.8837,542,1.7484
22.8884,533,1.7194
22.8927,504,1.6258
22.8970,500,1.6129
22.9013,542,1.7484
22.9056,557,1.7968
22.9099,504,1.6258
22.9142,450,1.4516
22.9185,449,1.4484
22.9228,502,1.6194
22.9271,514,1.6581
22.9314,442,1.4258
22.9358,399,1.2871
22.9403,433,1.3968
22.9446,485,1.5645
22.9490,452,1.4581
22.9534,371,1.1968
22.9577,395,1.2742
22.9620,472,1.5226
22.9666,516,1.6645
22.9710,460,1.4839
22.9752,441,1.4226
22.9796,487,1.5710
22.9845,537,1.7323
22.9888,539,1.7387
22.9931,522,1.6839
22.9974,522,1.6839
23.0017,570,1.8387
23.0060,626,2.0194
23.0103,607,1.9581
23.0146,530,1.7097
23.0189,514,1.6581
23.0232,535,1.7258
23.0275,499,1.6097
23.0325,481,1.5516
23.0368,479,1.5452
23.0411,528,1.7032
23.0454,580,1.8710
23.0497,575,1.8548
23.0540,533,1.7194
23.0583,555,1.7903
23.0626,612,1.9742
23.0669,620,2.0000
23.0712,557,1.7968
23.0755,539,1.7387
23.0798,601,1.9387
23.0841,656,2.1161
23.0884,634,2.0452
23.0928,590,1.9032
23.0971,598,1.9290
23.1014,655,2.1129
23.1057,686,2.2129
23.1100,665,2.1452
23.1143,642,2.0710
23.1186,641,2.0677
23.1229,687,2.2161
23.1272,710,2.2903
23.1315,663,2.1387
23.1358,604,1.9484
23.1401,625,2.0161
23.1444,674,2.1742
23.1487,661,2.1323
23.1530,585,1.8871
23.1573,562,1.8129
23.1616,644,2.0774
23.1659,716,2.3097
23.1702,684,2.2065
23.1745,606,1.9548
23.1788,612,1.9742
23.1831,688,2.2194
23.1874,709,2.2871
23.1917,634,2.0452
23.1961,573,1.8484
23.2004,578,1.8645
23.2047,596,1.9226
23.2090,593,1.9129
23.2133,556,1.7935
23.2176,541,1.7452
23.2219,561,1.8097
23.2262,600,1.9355
23.2305,598,1.9290
23.2348,577,1.8613
23.2391,611,1.9710
23.2434,681,2.1968
23.2477,701,2.2613
23.2520,650,2.0968
23.2563,597,1.9258
23.2606,597,1.9258
23.2649,613,1.9774
23.2692,600,1.9355
23.2735,564,1.8194
23.2778,561,1.8097
23.2823,605,1.9516
23.2866,622,2.0065
23.2909,563,1.8161
23.2952,512,1.6516
23.2995,541,1.7452
23.3038,609,1.9645
23.3081,610,1.9677
23.3124,567,1.8290
23.3167,566,1.8258
23.3210,591,1.9065
23.3253,599,1.9323
23.3296,558,1.8000
23.3343,492,1.5871
23.3387,496,1.6000
23.3430,543,1.7516
23.3473,547,1.7645
23.3516,490,1.5806
23.3559,455,1.4677
23.3602,492,1.5871
23.3645,553,1.7839
23.3688,558,1.8000
23.3730,501,1.6161
23.3773,470,1.5161
23.3817,510,1.6452
23.3861,532,1.7161
23.3904,489,1.5774
23.3947,438,1.4129
23.3990,430,1.3871
23.4033,459,1.4806
23.4076,458,1.4774
23.4119,411,1.3258
23.4162,396,1.2774
23.4205,448,1.4452
23.4248,517,1.6677
23.4291,515,1.6613
23.4334,449,1.4484
23.4377,417,1.3452
23.4420,465,1.5000
23.4463,494,1.5935
23.4506,451,1.4548
23.4549,420,1.3548
23.4592,466,1.5032
23.4635,552,1.7806
23.4678,577,1.8613
23.4721,532,1.7161
23.4764,501,1.6161
23.4812,543,1.7516
23.4855,581,1.8742
23.4898,559,1.8032
23.4941,531,1.7129
23.4984,568,1.8323
23.5028,670,2.1613
23.5070,715,2.3065
23.5113,657,2.1194
23.5160,569,1.8355
23.5203,582,1.8774
23.5247,626,2.0194
23.5290,610,1.9677
23.5333,554,1.7871
23.5388,533,1.7194
23.5432,580,1.8710
23.5476,592,1.9097
23.5519,546,1.7613
23.5562,497,1.6032
23.5605,503,1.6226
23.5649,541,1.7452
23.5692,536,1.7290
23.5735,475,1.5323
23.5777,439,1.4161
23.5820,449,1.4484
23.5864,475,1.5323
23.5907,447,1.4419
23.5950,412,1.3290
23.5993,439,1.4161
23.6036,505,1.6290
23.6079,532,1.7161
23.6122,502,1.6194
23.6165,490,1.5806
23.6208,530,1.7097
23.6251,582,1.8774
23.6294,573,1.8484
23.6337,536,1.7290
23.6380,534,1.7226
23.6423,614,1.9806
23.6466,753,2.4290
23.6509,903,2.9129
23.6552,922,2.9742
23.6595,765,2.4677
23.6638,590,1.9032
23.6681,466,1.5032
23.6724,414,1.3355
23.6767,413,1.3323
23.6810,461,1.4871
23.6858,508,1.6387
23.6902,472,1.5226
23.6944,426,1.3742
23.6987,416,1.3419
23.7030,427,1.3774
23.7074,423,1.3645
23.7117,380,1.2258
23.7160,355,1.1452
23.7203,384,1.2387
23.7246,406,1.3097
23.7289,377,1.2161
23.7332,333,1.0742
23.7375,340,1.0968
23.7418,406,1.3097
23.7461,456,1.4710
23.7504,444,1.4323
23.7547,423,1.3645
23.7590,452,1.4581
23.7634,528,1.7032
23.7677,544,1.7548
23.7720,495,1.5968
23.7763,494,1.5935
23.7806,535,1.7258
23.7849,553,1.7839
23.7897,510,1.6452
23.7940,463,1.4935
23.7983,490,1.5806
23.8026,560,1.8065
23.8069,597,1.9258
23.8112,564,1.8194
23.8155,543,1.7516
23.8198,577,1.8613
23.8246,639,2.0613
23.8289,628,2.0258
23.8332,577,1.8613
23.8375,554,1.7871
23.8420,590,1.9032
23.8464,612,1.9742
23.8508,569,1.8355
23.8551,516,1.6645
23.8594,519,1.6742
23.8637,562,1.8129
23.8680,566,1.8258
23.8723,517,1.6677
23.8766,494,1.5935
23.8809,520,1.6774
23.8852,542,1.7484
23.8895,535,1.7258
23.8938,497,1.6032
23.8981,485,1.5645
23.9024,538,1.7355
23.9067,582,1.8774
23.9111,559,1.8032
23.9154,514,1.6581
23.9197,519,1.6742
23.9240,540,1.7419
23.9283,532,1.7161
23.9326,475,1.5323
23.9369,436,1.4065
23.9412,468,1.5097
23.9455,517,1.6677
23.9498,477,1.5387
23.9541,388,1.2516
23.9584,371,1.1968
23.9627,417,1.3452
23.9670,438,1.4129
23.9713,415,1.3387
23.9756,365,1.1774
23.9799,364,1.1742
23.9842,412,1.3290
23.9885,428,1.3806
23.9929,396,1.2774
23.9972,376,1.2129
24.0015,397,1.2806
24.0057,427,1.3774
24.0100,397,1.2806
24.0144,337,1.0871
24.0187,314,1.0129
24.0230,326,1.0516
24.0272,318,1.0258
24.0315,261,0.8419
24.0359,230,0.7419
24.0402,282,0.9097
24.0445,344,1.1097
24.0488,331,1.0677
24.0536,257,0.8290
24.0579,234,0.7548
24.0622,277,0.8935
24.0665,297,0.9581
24.0708,263,0.8484
24.0751,232,0.7484
24.0794,262,0.8452
24.0837,334,1.0774
24.0880,363,1.1710
24.0923,314,1.0129
24.0966,287,0.9258
24.1009,345,1.1129
24.1052,430,1.3871
24.1095,453,1.4613
24.1138,428,1.3806
24.1181,445,1.4355
24.1224,514,1.6581
24.1267,551,1.7774
24.1310,514,1.6581
24.1353,482,1.5548
24.1396,491,1.5839
24.1439,544,1.7548
24.1482,545,1.7581
24.1525,484,1.5613
24.1568,449,1.4484
24.1611,487,1.5710
24.1654,552,1.7806
24.1697,565,1.8226
24.1740,545,1.7581
24.1783,556,1.7935
24.1826,595,1.9194
24.1869,602,1.9419
24.1912,543,1.7516
24.1955,476,1.5355
24.1999,482,1.5548
24.2042,532,1.7161
24.2084,540,1.7419
24.2127,491,1.5839
24.2171,447,1.4419
24.2214,474,1.5290
24.2256,527,1.7000
24.2299,522,1.6839
24.2342,476,1.5355
24.2386,482,1.5548
24.2429,535,1.7258
24.2471,548,1.7677
24.2514,506,1.6323
24.2557,463,1.4935
24.2599,468,1.5097
24.2642,502,1.6194
24.2685,503,1.6226
24.2727,455,1.4677
24.2770,420,1.3548
24.2813,429,1.3839
24.2855,445,1.4355
24.2898,422,1.3613
24.2941,382,1.2323
24.2984,425,1.3710
24.3028,504,1.6258
24.3070,539,1.7387
24.3113,521,1.6806
24.3156,468,1.5097
24.3199,462,1.4903
24.3243,494,1.5935
24.3285,481,1.5516
24.3328,415,1.3387
24.3371,373,1.2032
24.3414,391,1.2613
24.3457,419,1.3516
24.3500,410,1.3226
24.3543,386,1.2452
24.3586,372,1.2000
24.3629,399,1.2871
24.3672,417,1.3452
24.3715,375,1.2097
24.3758,335,1.0806
24.3801,350,1.1290
24.3844,400,1.2903
24.3887,390,1.2581
24.3932,335,1.0806
24.3974,313,1.0097
24.4017,354,1.1419
24.4060,416,1.3419
24.4103,417,1.3452
24.4145,374,1.2065
24.4188,361,1.1645
24.4231,380,1.2258
24.4273,378,1.2194
24.4316,313,1.0097
24.4360,245,0.7903
24.4404,273,0.8806
24.4447,441,1.4226
24.4491,671,2.1645
24.4534,681,2.1968
24.4576,469,1.5129
24.4619,315,1.0161
24.4662,286,0.9226
24.4705,304,0.9806
24.4747,331,1.0677
24.4790,359,1.1581
24.4833,408,1.3161
24.4876,420,1.3548
24.4918,372,1.2000
24.4961,347,1.1194
24.5004,381,1.2290
24.5047,413,1.3323
24.5090,406,1.3097
24.5133,377,1.2161
24.5176,374,1.2065
24.5219,408,1.3161
24.5262,440,1.4194
24.5305,431,1.3903
24.5348,402,1.2968
24.5391,410,1.3226
24.5434,476,1.5355
24.5477,528,1.7032
24.5520,509,1.6419
24.5563,482,1.5548
24.5606,511,1.6484
24.5649,542,1.7484
24.5692,523,1.6871
24.5735,478,1.5419
24.5778,480,1.5484
24.5821,527,1.7000
24.5864,561,1.8097
24.5907,539,1.7387
24.5951,509,1.6419
24.5993,520,1.6774
24.6036,557,1.7968
24.6079,575,1.8548
24.6123,559,1.8032
24.6165,549,1.7710
24.6208,581,1.8742
24.6251,619,1.9968
24.6294,612,1.9742
24.6337,563,1.8161
24.6380,550,1.7742
24.6423,582,1.8774
24.6466,613,1.9774
24.6509,576,1.8581
24.6552,519,1.6742
24.6595,520,1.6774
24.6638,578,1.8645
24.6682,596,1.9226
24.6725,552,1.7806
24.6768,529,1.7065
24.6810,565,1.8226
24.6854,610,1.9677
24.6896,604,1.9484
24.6939,559,1.8032
24.6982,543,1.7516
24.7025,589,1.9000
24.7068,645,2.0806
24.7112,641,2.0677
24.7155,622,2.0065
24.7197,664,2.1419
24.7240,743,2.3968
24.7284,780,2.5161
24.7326,763,2.4613
24.7370,763,2.4613
24.7414,827,2.6677
24.7458,855,2.7581
24.7502,828,2.6710
24.7545,726,2.3419
24.7588,647,2.0871
24.7631,668,2.1548
24.7674,687,2.2161
24.7717,641,2.0677
24.7760,590,1.9032
24.7803,602,1.9419
24.7846,619,1.9968
24.7889,587,1.8935
24.7933,533,1.7194
24.7976,506,1.6323
24.8019,516,1.6645
24.8062,555,1.7903
24.8104,532,1.7161
24.8147,480,1.5484
24.8190,484,1.5613
24.8233,522,1.6839
24.8275,544,1.7548
24.8318,520,1.6774
24.8361,507,1.6355
24.8404,551,1.7774
24.8446,620,2.0000
24.8489,633,2.0419
24.8532,592,1.9097
24.8574,577,1.8613
24.8617,611,1.9710
24.8660,637,2.0548
24.8702,610,1.9677
24.8745,550,1.7742
24.8788,542,1.7484
24.8830,569,1.8355
24.8873,573,1.8484
24.8916,543,1.7516
24.8959,513,1.6548
24.9001,513,1.6548
24.9044,528,1.7032
24.9087,522,1.6839
24.9130,485,1.5645
24.9173,463,1.4935
24.9216,485,1.5645
24.9259,509,1.6419
24.9302,503,1.6226
24.9346,481,1.5516
24.9388,477,1.5387
24.9431,515,1.6613
24.9474,544,1.7548
24.9517,529,1.7065
24.9561,508,1.6387
24.9603,527,1.7000
24.9646,552,1.7806
24.9689,536,1.7290
24.9732,489,1.5774
24.9775,504,1.6258
24.9818,550,1.7742
24.9861,586,1.8903
24.9904,574,1.8516
24.9948,527,1.7000
24.9991,525,1.6935
25.0034,570,1.8387
25.0077,598,1.9290
25.0120,566,1.8258
25.0168,500,1.6129
25.0212,480,1.5484
25.0320,482,1.5548
25.0365,447,1.4419
25.0410,454,1.4645
25.0456,469,1.5129
25.0500,421,1.3581
25.0543,358,1.1548
25.0586,369,1.1903
25.0629,426,1.3742
25.0672,444,1.4323
25.0715,425,1.3710
25.0758,430,1.3871
25.0801,467,1.5065
25.0844,509,1.6419
25.0887,517,1.6677
25.0930,493,1.5903
25.0973,511,1.6484
25.1016,578,1.8645
25.1058,625,2.0161
25.1101,609,1.9645
25.1143,549,1.7710
25.1186,527,1.7000
25.1228,564,1.8194
25.1271,601,1.9387
25.1313,575,1.8548
25.1356,529,1.7065
25.1398,537,1.7323
25.1440,579,1.8677
25.1483,596,1.9226
25.1525,564,1.8194
25.1568,534,1.7226
25.1610,560,1.8065
25.1652,606,1.9548
25.1695,595,1.9194
25.1737,537,1.7323
25.1780,497,1.6032
25.1822,536,1.7290
25.1864,568,1.8323
25.1907,558,1.8000
25.1949,516,1.6645
25.1992,519,1.6742
25.2035,551,1.7774
25.2078,568,1.8323
25.2122,548,1.7677
25.2165,535,1.7258
25.2208,567,1.8290
25.2251,627,2.0226
25.2294,643,2.0742
25.2337,614,1.9806
25.2380,646,2.0839
25.2423,827,2.6677
25.2466,1001,3.2290
25.2509,994,3.2065
25.2552,806,2.6000
25.2595,614,1.9806
25.2638,585,1.8871
25.2681,618,1.9935
25.2724,619,1.9968
25.2767,585,1.8871
25.2810,561,1.8097
25.2853,558,1.8000
25.2900,494,1.5935
25.2943,397,1.2806
25.2986,374,1.2065
25.3029,424,1.3677
25.3072,464,1.4968
25.3116,453,1.4613
25.3159,461,1.4871
25.3202,522,1.6839
25.3245,601,1.9387
25.3288,627,2.0226
25.3331,569,1.8355
25.3374,524,1.6903
25.3430,568,1.8323
25.3475,594,1.9161
25.3519,582,1.8774
25.3563,569,1.8355
25.3606,579,1.8677
25.3650,612,1.9742
25.3694,604,1.9484
25.3737,556,1.7935
25.3780,548,1.7677
25.3824,558,1.8000
25.3867,549,1.7710
25.3911,495,1.5968
25.3954,430,1.3871
25.4005,425,1.3710
25.4048,480,1.5484
25.4092,481,1.5516
25.4135,439,1.4161
25.4178,409,1.3194
25.4221,431,1.3903
25.4264,458,1.4774
25.4307,440,1.4194
25.4350,414,1.3355
25.4393,429,1.3839
25.4436,470,1.5161
25.4479,487,1.5710
25.4522,456,1.4710
25.4565,426,1.3742
25.4608,436,1.4065
25.4651,484,1.5613
25.4694,501,1.6161
25.4737,471,1.5194
25.4780,456,1.4710
25.4823,483,1.5581
25.4868,501,1.6161
25.4911,485,1.5645
25.4954,452,1.4581
25.4997,467,1.5065
25.5040,520,1.6774
25.5083,517,1.6677
25.5127,467,1.5065
25.5169,443,1.4290
25.5212,483,1.5581
25.5255,516,1.6645
25.5298,504,1.6258
25.5342,467,1.5065
25.5384,465,1.5000
25.5427,515,1.6613
25.5470,546,1.7613
25.5516,518,1.6710
25.5561,491,1.5839
25.5604,504,1.6258
25.5647,532,1.7161
25.5690,539,1.7387
25.5733,545,1.7581
25.5776,552,1.7806
25.5819,581,1.8742
25.5862,625,2.0161
25.5905,606,1.9548
25.5948,549,1.7710
25.5991,545,1.7581
25.6034,567,1.8290
25.6077,568,1.8323
25.6120,518,1.6710
25.6164,477,1.5387
25.6206,500,1.6129
25.6249,548,1.7677
25.6292,552,1.7806
25.6335,501,1.6161
25.6379,463,1.4935
25.6423,488,1.5742
25.6467,529,1.7065
25.6512,514,1.6581
25.6555,468,1.5097
25.6599,472,1.5226
25.6642,512,1.6516
25.6684,539,1.7387
25.6727,514,1.6581
25.6771,484,1.5613
25.6814,508,1.6387
25.6857,544,1.7548
25.6899,539,1.7387
25.6942,492,1.5871
25.6986,478,1.5419
25.7030,522,1.6839
25.7073,570,1.8387
25.7116,555,1.7903
25.7160,511,1.6484
25.7203,508,1.6387
25.7246,545,1.7581
25.7289,572,1.8452
25.7332,548,1.7677
25.7376,521,1.6806
25.7419,539,1.7387
25.7462,579,1.8677
25.7504,577,1.8613
25.7547,524,1.6903
25.7591,496,1.6000
25.7634,527,1.7000
25.7677,558,1.8000
25.7720,539,1.7387
25.7763,506,1.6323
25.7806,508,1.6387
25.7849,543,1.7516
25.7892,545,1.7581
25.7935,493,1.5903
25.7978,466,1.5032
25.8021,481,1.5516
25.8064,504,1.6258
25.8107,476,1.5355
25.8150,415,1.3387
25.8193,407,1.3129
25.8236,459,1.4806
25.8279,504,1.6258
25.8322,493,1.5903
25.8365,468,1.5097
25.8408,485,1.5645
25.8451,533,1.7194
25.8494,548,1.7677
25.8541,504,1.6258
25.8584,472,1.5226
25.8627,506,1.6323
25.8670,541,1.7452
25.8713,521,1.6806
25.8761,462,1.4903
25.8804,460,1.4839
25.8847,500,1.6129
25.8890,502,1.6194
25.8933,468,1.5097
25.8976,448,1.4452
25.9019,484,1.5613
25.9062,515,1.6613
25.9105,510,1.6452
25.9148,481,1.5516
25.9191,476,1.5355
25.9235,519,1.6742
25.9278,535,1.7258
25.9320,504,1.6258
25.9363,465,1.5000
25.9406,474,1.5290
25.9450,511,1.6484
25.9493,510,1.6452
25.9535,462,1.4903
25.9579,451,1.4548
25.9622,484,1.5613
25.9665,516,1.6645
25.9708,502,1.6194
25.9751,461,1.4871
25.9794,438,1.4129
25.9837,468,1.5097
25.9880,492,1.5871
25.9923,477,1.5387
25.9966,450,1.4516
26.0009,460,1.4839
26.0052,495,1.5968
26.0095,496,1.6000
26.0138,441,1.4226
26.0181,417,1.3452
26.0230,469,1.5129
26.0273,518,1.6710
26.0316,502,1.6194
26.0359,446,1.4387
26.0402,428,1.3806
26.0446,466,1.5032
26.0489,482,1.5548
26.0532,455,1.4677
26.0574,437,1.4097
26.0618,485,1.5645
26.0661,535,1.7258
26.0704,537,1.7323
26.0747,500,1.6129
26.0790,478,1.5419
26.0833,472,1.5226
26.0876,421,1.3581
26.0919,352,1.1355
26.0962,316,1.0194
26.1005,334,1.0774
26.1049,383,1.2355
26.1092,402,1.2968
26.1135,364,1.1742
26.1178,335,1.0806
26.1221,353,1.1387
26.1264,377,1.2161
26.1307,362,1.1677
26.1350,334,1.0774
26.1393,343,1.1065
26.1436,383,1.2355
26.1479,389,1.2548
26.1522,361,1.1645
26.1565,353,1.1387
26.1609,390,1.2581
26.1658,430,1.3871
26.1701,399,1.2871
26.1744,352,1.1355
26.1787,373,1.2032
26.1830,464,1.4968
26.1873,555,1.7903
26.1916,596,1.9226
26.1959,746,2.4065
26.2002,962,3.1032
26.2045,965,3.1129
26.2088,745,2.4032
26.2132,547,1.7645
26.2175,499,1.6097
26.2218,547,1.7645
26.2261,609,1.9645
26.2304,583,1.8806
26.2347,507,1.6355
26.2391,481,1.5516
26.2460,539,1.7387
26.2504,541,1.7452
26.2547,509,1.6419
26.2590,492,1.5871
26.2633,517,1.6677
26.2676,537,1.7323
26.2718,515,1.6613
26.2761,484,1.5613
26.2803,503,1.6226
26.2846,550,1.7742
26.2889,557,1.7968
26.2931,521,1.6806
26.2974,482,1.5548
26.3017,489,1.5774
26.3060,493,1.5903
26.3102,466,1.5032
26.3145,418,1.3484
26.3188,419,1.3516
26.3231,465,1.5000
26.3273,517,1.6677
26.3316,520,1.6774
26.3360,503,1.6226
26.3402,519,1.6742
26.3445,576,1.8581
26.3488,606,1.9548
26.3530,560,1.8065
26.3573,525,1.6935
26.3616,523,1.6871
26.3658,556,1.7935
26.3701,551,1.7774
26.3743,509,1.6419
26.3786,503,1.6226
26.3829,536,1.7290
26.3872,570,1.8387
26.3914,569,1.8355
26.3957,544,1.7548
26.4000,546,1.7613
