time_s,adc_raw,voltage
0.0000,0,0.0000
0.0046,0,0.0000
0.0090,1004,3.2387
0.0135,1007,3.2484
0.0179,517,1.6677
0.0224,0,0.0000
0.0268,40,0.1290
0.0313,1005,3.2419
0.0357,1006,3.2452
0.0402,0,0.0000
0.0446,0,0.0000
0.0491,1003,3.2355
0.0535,1005,3.2419
0.0580,395,1.2742
0.0625,0,0.0000
0.0671,115,0.3710
0.0716,1007,3.2484
0.0762,1004,3.2387
0.0807,0,0.0000
0.0852,0,0.0000
0.0898,1007,3.2484
0.0944,1007,3.2484
0.0989,0,0.0000
0.1034,0,0.0000
0.1080,592,1.9097
0.1125,1007,3.2484
0.1171,864,2.7871
0.1216,0,0.0000
0.1262,0,0.0000
0.1307,1007,3.2484
0.1353,1006,3.2452
0.1398,0,0.0000
0.1444,0,0.0000
0.1489,1005,3.2419
0.1534,1006,3.2452
0.1580,391,1.2613
0.1625,0,0.0000
0.1671,168,0.5419
0.1716,1006,3.2452
0.1762,1005,3.2419
0.1807,0,0.0000
0.1853,0,0.0000
0.1899,1004,3.2387
0.1944,1006,3.2452
0.1989,0,0.0000
0.2033,0,0.0000
0.2078,540,1.7419
0.2122,1006,3.2452
0.2168,998,3.2194
0.2212,0,0.0000
0.2256,0,0.0000
0.2300,1006,3.2452
0.2344,1007,3.2484
0.2387,0,0.0000
0.2432,0,0.0000
0.2478,577,1.8613
0.2524,1006,3.2452
0.2569,950,3.0645
0.2615,0,0.0000
0.2798,0,0.0000
0.2844,0,0.0000
0.2889,1005,3.2419
0.2935,1005,3.2419
0.2980,288,0.9290
0.3027,0,0.0000
0.3073,300,0.9677
0.3121,1005,3.2419
0.3168,925,2.9839
0.3216,0,0.0000
0.3263,0,0.0000
0.3307,1007,3.2484
0.3352,1006,3.2452
0.3397,0,0.0000
0.3442,0,0.0000
0.3487,1003,3.2355
0.3531,1008,3.2516
0.3576,533,1.7194
0.3621,0,0.0000
0.3666,0,0.0000
0.3710,1006,3.2452
0.3754,1006,3.2452
0.3797,0,0.0000
0.3840,0,0.0000
0.3883,815,2.6290
0.3926,1006,3.2452
0.3970,898,2.8968
0.4013,0,0.0000
0.4056,0,0.0000
0.4099,1006,3.2452
0.4142,1005,3.2419
0.4186,0,0.0000
0.4228,0,0.0000
0.4271,179,0.5774
0.4314,1005,3.2419
0.4358,999,3.2226
0.4403,0,0.0000
0.4447,0,0.0000
0.4490,1006,3.2452
0.4533,1007,3.2484
0.4697,1006,3.2452
0.4742,1006,3.2452
0.4786,0,0.0000
0.4830,0,0.0000
0.4874,350,1.1290
0.4917,1005,3.2419
0.4960,1005,3.2419
0.5004,0,0.0000
0.5047,0,0.0000
0.5090,1005,3.2419
0.5133,1004,3.2387
0.5176,554,1.7871
0.5220,0,0.0000
0.5263,0,0.0000
0.5305,1006,3.2452
0.5348,1004,3.2387
0.5392,0,0.0000
0.5436,0,0.0000
0.5480,781,2.5194
0.5524,1005,3.2419
0.5567,983,3.1710
0.5611,0,0.0000
0.5654,0,0.0000
0.5697,1007,3.2484
0.5741,1006,3.2452
0.5784,42,0.1355
0.5828,0,0.0000
0.5872,267,0.8613
0.5915,1003,3.2355
0.5958,1005,3.2419
0.6001,0,0.0000
0.6044,0,0.0000
0.6087,1005,3.2419
0.6130,1006,3.2452
0.6174,682,2.2000
0.6217,0,0.0000
0.6261,0,0.0000
0.6305,1005,3.2419
0.6348,1005,3.2419
0.6392,0,0.0000
0.6437,0,0.0000
0.6481,838,2.7032
0.6525,1005,3.2419
0.6568,921,2.9710
0.6612,0,0.0000
0.6656,0,0.0000
0.6699,1005,3.2419
0.6743,1005,3.2419
0.6786,0,0.0000
0.6830,0,0.0000
0.6874,396,1.2774
0.6917,1006,3.2452
0.6961,1004,3.2387
0.7005,0,0.0000
0.7048,0,0.0000
0.7094,1004,3.2387
0.7140,1007,3.2484
0.7186,0,0.0000
0.7230,0,0.0000
0.7275,458,1.4774
0.7319,1006,3.2452
0.7363,1004,3.2387
0.7407,0,0.0000
0.7450,0,0.0000
0.7494,1004,3.2387
0.7537,1007,3.2484
0.7581,208,0.6710
0.7624,0,0.0000
0.7668,110,0.3548
0.7711,1008,3.2516
0.7754,1005,3.2419
0.7797,0,0.0000
0.7840,0,0.0000
0.7883,998,3.2194
0.7927,1007,3.2484
0.7970,832,2.6839
0.8013,0,0.0000
0.8056,0,0.0000
0.8099,1005,3.2419
0.8143,1006,3.2452
0.8186,0,0.0000
0.8228,0,0.0000
0.8269,187,0.6032
0.8311,1004,3.2387
0.8354,1007,3.2484
0.8396,0,0.0000
0.8449,0,0.0000
0.8492,1004,3.2387
0.8534,1007,3.2484
0.8576,514,1.6581
0.8618,0,0.0000
0.8660,0,0.0000
0.8702,1004,3.2387
0.8745,1007,3.2484
0.8786,0,0.0000
0.8828,0,0.0000
0.8870,237,0.7645
0.8912,1006,3.2452
0.8954,1007,3.2484
0.8996,0,0.0000
0.9038,0,0.0000
0.9080,831,2.6806
0.9122,1005,3.2419
0.9164,1002,3.2323
0.9206,0,0.0000
0.9248,0,0.0000
0.9289,1006,3.2452
0.9332,1004,3.2387
0.9374,607,1.9581
0.9416,0,0.0000
0.9457,0,0.0000
0.9499,1004,3.2387
0.9541,1006,3.2452
0.9583,0,0.0000
0.9625,0,0.0000
0.9667,114,0.3677
0.9709,1004,3.2387
0.9752,1006,3.2452
0.9794,0,0.0000
0.9836,0,0.0000
0.9878,661,2.1323
0.9919,1004,3.2387
0.9961,1004,3.2387
1.0003,0,0.0000
1.0046,0,0.0000
1.0089,1005,3.2419
1.0131,1007,3.2484
1.0175,508,1.6387
1.0217,0,0.0000
1.0261,0,0.0000
1.0303,1006,3.2452
1.0346,1006,3.2452
1.0389,0,0.0000
1.0432,0,0.0000
1.0475,545,1.7581
1.0518,1007,3.2484
1.0561,1005,3.2419
1.0604,0,0.0000
1.0648,0,0.0000
1.0691,1006,3.2452
1.0734,1006,3.2452
1.0779,201,0.6484
1.0823,0,0.0000
1.0867,132,0.4258
1.0910,1007,3.2484
1.0953,1004,3.2387
1.0997,0,0.0000
1.1040,0,0.0000
1.1084,1005,3.2419
1.1127,1006,3.2452
1.1171,722,2.3290
1.1214,0,0.0000
1.1258,0,0.0000
1.1301,1006,3.2452
1.1344,1007,3.2484
1.1388,0,0.0000
1.1431,0,0.0000
1.1475,560,1.8065
1.1518,1006,3.2452
1.1561,1002,3.2323
1.1604,0,0.0000
1.1648,0,0.0000
1.1691,1007,3.2484
1.1735,1005,3.2419
1.1778,273,0.8806
1.1821,0,0.0000
1.1865,59,0.1903
1.1909,1007,3.2484
1.1952,1006,3.2452
1.1997,0,0.0000
1.2040,0,0.0000
1.2083,1004,3.2387
1.2127,1004,3.2387
1.2170,681,2.1968
1.2214,0,0.0000
1.2257,0,0.0000
1.2301,1007,3.2484
1.2345,1008,3.2516
1.2388,0,0.0000
1.2431,0,0.0000
1.2475,557,1.7968
1.2519,1006,3.2452
1.2562,991,3.1968
1.2606,0,0.0000
1.2649,0,0.0000
1.2692,1005,3.2419
1.2735,1006,3.2452
1.2778,160,0.5161
1.2822,0,0.0000
1.2865,56,0.1806
1.2908,1007,3.2484
1.2951,1006,3.2452
1.2994,0,0.0000
1.3038,0,0.0000
1.3081,985,3.1774
1.3124,1007,3.2484
1.3167,843,2.7194
1.3210,0,0.0000
1.3253,0,0.0000
1.3296,1006,3.2452
1.3340,1005,3.2419
1.3383,0,0.0000
1.3426,0,0.0000
1.3468,245,0.7903
1.3511,1006,3.2452
1.3554,1006,3.2452
1.3597,0,0.0000
1.3640,0,0.0000
1.3682,1006,3.2452
1.3725,1005,3.2419
1.3768,791,2.5516
1.3811,0,0.0000
1.3853,0,0.0000
1.3896,1004,3.2387
1.3939,1006,3.2452
1.3981,12,0.0387
1.4024,0,0.0000
1.4066,167,0.5387
1.4109,1003,3.2355
1.4151,1006,3.2452
1.4193,0,0.0000
1.4236,0,0.0000
1.4279,937,3.0226
1.4322,1004,3.2387
1.4365,935,3.0161
1.4407,0,0.0000
1.4452,0,0.0000
1.4495,1005,3.2419
1.4538,1006,3.2452
1.4580,48,0.1548
1.4622,0,0.0000
1.4665,105,0.3387
1.4708,1005,3.2419
1.4750,1006,3.2452
1.4793,0,0.0000
1.4835,0,0.0000
1.4878,780,2.5161
1.4920,1007,3.2484
1.4963,938,3.0258
1.5006,0,0.0000
1.5049,0,0.0000
1.5092,1004,3.2387
1.5134,1007,3.2484
1.5177,166,0.5355
1.5219,0,0.0000
1.5262,0,0.0000
1.5305,1006,3.2452
1.5347,1007,3.2484
1.5390,0,0.0000
1.5433,0,0.0000
1.5476,633,2.0419
1.5518,1005,3.2419
1.5561,996,3.2129
1.5603,0,0.0000
1.5646,0,0.0000
1.5688,1007,3.2484
1.5731,1007,3.2484
1.5773,410,1.3226
1.5816,0,0.0000
1.5858,0,0.0000
1.5900,1004,3.2387
1.5943,1003,3.2355
1.5985,0,0.0000
1.6028,0,0.0000
1.6070,385,1.2419
1.6113,1005,3.2419
1.6155,1005,3.2419
1.6198,0,0.0000
1.6240,0,0.0000
1.6283,1007,3.2484
1.6325,1006,3.2452
1.6368,759,2.4484
1.6410,0,0.0000
1.6453,0,0.0000
1.6496,1006,3.2452
1.6540,1004,3.2387
1.6583,0,0.0000
1.6626,0,0.0000
1.6668,308,0.9935
1.6711,1005,3.2419
1.6753,1006,3.2452
1.6796,0,0.0000
1.6838,0,0.0000
1.6881,1005,3.2419
1.6923,1006,3.2452
1.6966,801,2.5839
1.7008,0,0.0000
1.7051,0,0.0000
1.7093,1006,3.2452
1.7136,1006,3.2452
1.7179,11,0.0355
1.7221,0,0.0000
1.7264,89,0.2871
1.7306,1005,3.2419
1.7349,1006,3.2452
1.7392,0,0.0000
1.7435,0,0.0000
1.7478,884,2.8516
1.7521,1007,3.2484
1.7564,878,2.8323
1.7607,0,0.0000
1.7649,0,0.0000
1.7691,1004,3.2387
1.7734,1007,3.2484
1.7776,164,0.5290
1.7818,0,0.0000
1.7860,0,0.0000
1.7903,1006,3.2452
1.7945,1007,3.2484
1.7987,0,0.0000
1.8030,0,0.0000
1.8073,590,1.9032
1.8116,1004,3.2387
1.8159,1000,3.2258
1.8202,0,0.0000
1.8244,0,0.0000
1.8287,1006,3.2452
1.8331,1005,3.2419
1.8374,296,0.9548
1.8417,0,0.0000
1.8460,0,0.0000
1.8503,1006,3.2452
1.8545,1006,3.2452
1.8588,0,0.0000
1.8630,0,0.0000
1.8672,558,1.8000
1.8715,1004,3.2387
1.8757,1005,3.2419
1.8800,0,0.0000
1.8842,0,0.0000
1.8884,1006,3.2452
1.8926,1008,3.2516
1.8968,680,2.1935
1.9010,0,0.0000
1.9052,0,0.0000
1.9094,1004,3.2387
1.9136,1006,3.2452
1.9178,22,0.0710
1.9220,0,0.0000
1.9262,59,0.1903
1.9304,1005,3.2419
1.9349,1007,3.2484
1.9392,0,0.0000
1.9434,0,0.0000
1.9476,826,2.6645
1.9518,1007,3.2484
1.9560,973,3.1387
1.9602,0,0.0000
1.9645,0,0.0000
1.9688,1006,3.2452
1.9731,1008,3.2516
1.9774,244,0.7871
1.9817,0,0.0000
1.9861,4,0.0129
1.9904,1007,3.2484
1.9947,1004,3.2387
1.9990,0,0.0000
2.0033,0,0.0000
2.0077,860,2.7742
2.0120,1007,3.2484
2.0162,872,2.8129
2.0205,0,0.0000
2.0248,0,0.0000
2.0291,1006,3.2452
2.0333,1006,3.2452
2.0376,105,0.3387
2.0419,0,0.0000
2.0462,105,0.3387
2.0505,1004,3.2387
2.0548,1006,3.2452
2.0591,0,0.0000
2.0633,0,0.0000
2.0676,913,2.9452
2.0719,1003,3.2355
2.0762,899,2.9000
2.0805,0,0.0000
2.0848,0,0.0000
2.0891,1005,3.2419
2.0934,1004,3.2387
2.0977,12,0.0387
2.1020,0,0.0000
2.1064,171,0.5516
2.1107,1003,3.2355
2.1150,1007,3.2484
2.1193,0,0.0000
2.1236,0,0.0000
2.1279,1004,3.2387
2.1322,1005,3.2419
2.1365,721,2.3258
2.1408,0,0.0000
2.1452,0,0.0000
2.1495,1006,3.2452
2.1539,1006,3.2452
2.1582,0,0.0000
2.1625,0,0.0000
2.1667,339,1.0935
2.1710,1006,3.2452
2.1752,1006,3.2452
2.1795,0,0.0000
2.1837,0,0.0000
2.1879,1005,3.2419
2.1922,1007,3.2484
2.1964,813,2.6226
2.2006,0,0.0000
2.2048,0,0.0000
2.2090,1007,3.2484
2.2132,1004,3.2387
2.2174,173,0.5581
2.2216,0,0.0000
2.2258,0,0.0000
2.2301,1007,3.2484
2.2343,1007,3.2484
2.2385,0,0.0000
2.2427,0,0.0000
2.2469,507,1.6355
2.2512,1007,3.2484
2.2554,1003,3.2355
2.2596,0,0.0000
2.2638,0,0.0000
2.2681,1007,3.2484
2.2723,1006,3.2452
2.2766,750,2.4194
2.2808,0,0.0000
2.2850,0,0.0000
2.2893,1004,3.2387
2.2935,1004,3.2387
2.2977,1,0.0032
2.3020,0,0.0000
2.3063,220,0.7097
2.3106,1006,3.2452
2.3149,1006,3.2452
2.3192,0,0.0000
2.3235,0,0.0000
2.3277,1004,3.2387
2.3320,1006,3.2452
2.3362,853,2.7516
2.3404,0,0.0000
2.3452,0,0.0000
2.3495,1007,3.2484
2.3538,1007,3.2484
2.3581,0,0.0000
2.3623,0,0.0000
2.3665,250,0.8065
2.3707,1004,3.2387
2.3750,1004,3.2387
2.3792,0,0.0000
2.3834,0,0.0000
2.3876,957,3.0871
2.3919,1005,3.2419
2.3962,808,2.6065
2.4004,0,0.0000
2.4046,0,0.0000
2.4088,1007,3.2484
2.4130,1005,3.2419
2.4172,209,0.6742
2.4214,0,0.0000
2.4256,0,0.0000
2.4298,1007,3.2484
2.4340,1007,3.2484
2.4382,0,0.0000
2.4424,0,0.0000
2.4466,324,1.0452
2.4508,1005,3.2419
2.4551,1003,3.2355
2.4593,0,0.0000
2.4636,0,0.0000
2.4679,1005,3.2419
2.4722,1006,3.2452
2.4765,664,2.1419
2.4807,0,0.0000
2.4849,0,0.0000
2.4891,1007,3.2484
2.4933,1006,3.2452
2.4976,19,0.0613
2.5018,0,0.0000
2.5059,81,0.2613
2.5101,1006,3.2452
2.5144,1007,3.2484
2.5186,0,0.0000
2.5228,0,0.0000
2.5269,631,2.0355
2.5312,1007,3.2484
2.5354,1004,3.2387
2.5396,0,0.0000
2.5438,0,0.0000
2.5480,1006,3.2452
2.5522,1007,3.2484
2.5564,717,2.3129
2.5606,0,0.0000
2.5649,0,0.0000
2.5691,1007,3.2484
2.5734,1007,3.2484
2.5776,0,0.0000
2.5819,0,0.0000
2.5861,174,0.5613
2.5903,1003,3.2355
2.5945,1007,3.2484
2.5988,0,0.0000
2.6030,0,0.0000
2.6072,743,2.3968
2.6114,1007,3.2484
2.6156,999,3.2226
2.6198,0,0.0000
2.6240,0,0.0000
2.6282,1006,3.2452
2.6324,1005,3.2419
2.6366,511,1.6484
2.6409,0,0.0000
2.6459,60,0.1935
2.6502,1004,3.2387
2.6544,1006,3.2452
2.6587,0,0.0000
2.6629,0,0.0000
2.6671,676,2.1806
2.6713,1007,3.2484
2.6755,998,3.2194
2.6798,0,0.0000
2.6840,0,0.0000
2.6882,1007,3.2484
2.6924,1004,3.2387
2.6966,496,1.6000
2.7009,0,0.0000
2.7051,0,0.0000
2.7093,1005,3.2419
2.7135,1006,3.2452
2.7177,0,0.0000
2.7219,0,0.0000
2.7261,169,0.5452
2.7303,1007,3.2484
2.7345,1003,3.2355
2.7387,0,0.0000
2.7430,0,0.0000
2.7471,808,2.6065
2.7514,1007,3.2484
2.7556,986,3.1806
2.7599,0,0.0000
2.7641,0,0.0000
2.7683,1004,3.2387
2.7726,1007,3.2484
2.7768,430,1.3871
2.7810,0,0.0000
2.7852,0,0.0000
2.7894,1004,3.2387
2.7936,1004,3.2387
2.7978,0,0.0000
2.8020,0,0.0000
2.8062,268,0.8645
2.8104,1006,3.2452
2.8146,1007,3.2484
2.8188,0,0.0000
2.8230,0,0.0000
2.8272,861,2.7774
2.8314,1005,3.2419
2.8357,959,3.0935
2.8399,0,0.0000
2.8441,0,0.0000
2.8483,1006,3.2452
2.8525,1005,3.2419
2.8567,440,1.4194
2.8609,0,0.0000
2.8651,0,0.0000
2.8693,1006,3.2452
2.8735,1005,3.2419
2.8778,0,0.0000
2.8821,0,0.0000
2.8864,368,1.1871
2.8907,1005,3.2419
2.8950,1005,3.2419
2.8994,0,0.0000
2.9039,0,0.0000
2.9083,1004,3.2387
2.9127,1005,3.2419
2.9170,200,0.6452
2.9213,0,0.0000
2.9257,39,0.1258
2.9300,1006,3.2452
2.9343,1006,3.2452
2.9385,0,0.0000
2.9428,0,0.0000
2.9471,814,2.6258
2.9513,1004,3.2387
2.9556,970,3.1290
2.9599,0,0.0000
2.9642,0,0.0000
2.9685,1006,3.2452
2.9727,1006,3.2452
2.9770,236,0.7613
2.9813,0,0.0000
2.9856,67,0.2161
2.9899,1006,3.2452
2.9942,1005,3.2419
2.9984,0,0.0000
3.0026,0,0.0000
3.0069,735,2.3710
3.0112,1006,3.2452
3.0155,993,3.2032
3.0198,0,0.0000
3.0240,0,0.0000
3.0283,1004,3.2387
3.0326,1007,3.2484
3.0368,333,1.0742
3.0411,0,0.0000
3.0453,0,0.0000
3.0496,1005,3.2419
3.0539,1005,3.2419
3.0582,0,0.0000
3.0625,0,0.0000
3.0669,791,2.5516
3.0714,1007,3.2484
3.0758,860,2.7742
3.0803,0,0.0000
3.0848,0,0.0000
3.0892,1004,3.2387
3.0937,1006,3.2452
3.0981,0,0.0000
3.1025,0,0.0000
3.1069,766,2.4710
3.1113,1006,3.2452
3.1157,897,2.8935
3.1201,0,0.0000
3.1245,0,0.0000
3.1288,1006,3.2452
3.1332,1007,3.2484
3.1375,0,0.0000
3.1419,0,0.0000
3.1463,412,1.3290
3.1507,1006,3.2452
3.1550,1004,3.2387
3.1594,0,0.0000
3.1639,0,0.0000
3.1682,1007,3.2484
3.1726,1006,3.2452
3.1769,158,0.5097
3.1813,0,0.0000
3.1857,108,0.3484
3.1901,1007,3.2484
3.1945,1007,3.2484
3.1989,0,0.0000
3.2032,0,0.0000
3.2076,1006,3.2452
3.2121,1004,3.2387
3.2165,436,1.4065
3.2208,0,0.0000
3.2253,0,0.0000
3.2296,1004,3.2387
3.2339,1007,3.2484
3.2383,0,0.0000
3.2426,0,0.0000
3.2470,831,2.6806
3.2513,1006,3.2452
3.2557,811,2.6161
3.2601,0,0.0000
3.2645,0,0.0000
3.2689,1004,3.2387
3.2732,1007,3.2484
3.2776,0,0.0000
3.2820,0,0.0000
3.2863,400,1.2903
3.2907,1004,3.2387
3.2952,996,3.2129
3.2996,0,0.0000
3.3041,0,0.0000
3.3085,1006,3.2452
3.3128,1006,3.2452
3.3172,0,0.0000
3.3216,0,0.0000
3.3260,233,0.7516
3.3304,1007,3.2484
3.3347,1005,3.2419
3.3390,0,0.0000
3.3434,0,0.0000
3.3477,1006,3.2452
3.3521,1007,3.2484
3.3564,446,1.4387
3.3608,0,0.0000
3.3651,0,0.0000
3.3695,1006,3.2452
3.3738,1004,3.2387
3.3781,0,0.0000
3.3824,0,0.0000
3.3868,794,2.5613
3.3911,1003,3.2355
3.3955,953,3.0742
3.3998,0,0.0000
3.4041,0,0.0000
3.4085,1004,3.2387
3.4128,1007,3.2484
3.4172,0,0.0000
3.4215,0,0.0000
3.4259,280,0.9032
3.4302,1007,3.2484
3.4346,1006,3.2452
3.4389,0,0.0000
3.4432,0,0.0000
3.4475,1005,3.2419
3.4517,1007,3.2484
3.4559,769,2.4806
3.4601,0,0.0000
3.4643,0,0.0000
3.4685,1006,3.2452
3.4727,1006,3.2452
3.4770,82,0.2645
3.4813,0,0.0000
3.4856,116,0.3742
3.4898,1006,3.2452
3.4941,1006,3.2452
3.4984,0,0.0000
3.5026,0,0.0000
3.5069,817,2.6355
3.5111,1006,3.2452
3.5154,916,2.9548
3.5197,0,0.0000
3.5240,0,0.0000
3.5283,1006,3.2452
3.5325,1007,3.2484
3.5367,209,0.6742
3.5409,0,0.0000
3.5458,181,0.5839
3.5501,1006,3.2452
3.5543,1002,3.2323
3.5586,0,0.0000
3.5628,0,0.0000
3.5670,896,2.8903
3.5712,1005,3.2419
3.5755,890,2.8710
3.5797,0,0.0000
3.5839,0,0.0000
3.5881,1004,3.2387
3.5923,1006,3.2452
3.5965,315,1.0161
3.6007,0,0.0000
3.6050,0,0.0000
3.6092,1005,3.2419
3.6134,1006,3.2452
3.6176,0,0.0000
3.6218,0,0.0000
3.6260,362,1.1677
3.6302,1005,3.2419
3.6344,1003,3.2355
3.6386,0,0.0000
3.6428,0,0.0000
3.6471,1005,3.2419
3.6513,1004,3.2387
3.6556,851,2.7452
3.6599,0,0.0000
3.6642,0,0.0000
3.6685,1005,3.2419
3.6728,1004,3.2387
3.6771,0,0.0000
3.6814,0,0.0000
3.6857,259,0.8355
3.6900,1003,3.2355
3.6943,1007,3.2484
3.6987,0,0.0000
3.7030,0,0.0000
3.7073,1005,3.2419
3.7116,1006,3.2452
3.7160,621,2.0032
3.7204,0,0.0000
3.7247,0,0.0000
3.7290,1005,3.2419
3.7333,1006,3.2452
3.7376,0,0.0000
3.7419,0,0.0000
3.7462,519,1.6742
3.7505,1006,3.2452
3.7547,1002,3.2323
3.7590,0,0.0000
3.7633,0,0.0000
3.7676,1004,3.2387
3.7720,1004,3.2387
3.7763,422,1.3613
3.7805,0,0.0000
3.7848,0,0.0000
3.7891,1003,3.2355
3.7934,1004,3.2387
3.7978,0,0.0000
3.8020,0,0.0000
3.8063,574,1.8516
3.8106,1004,3.2387
3.8149,1000,3.2258
3.8192,0,0.0000
3.8235,0,0.0000
3.8279,1004,3.2387
3.8323,1007,3.2484
3.8365,246,0.7935
3.8407,0,0.0000
3.8450,0,0.0000
3.8492,1007,3.2484
3.8534,1006,3.2452
3.8576,0,0.0000
3.8619,0,0.0000
3.8662,550,1.7742
3.8705,1006,3.2452
3.8748,1005,3.2419
3.8790,0,0.0000
3.8834,0,0.0000
3.8877,1007,3.2484
3.8920,1005,3.2419
3.8963,419,1.3516
3.9005,0,0.0000
3.9047,0,0.0000
3.9089,1006,3.2452
3.9132,1007,3.2484
3.9174,0,0.0000
3.9216,0,0.0000
3.9258,324,1.0452
3.9300,1006,3.2452
3.9343,1006,3.2452
3.9387,0,0.0000
3.9430,0,0.0000
3.9473,1006,3.2452
3.9515,1007,3.2484
3.9558,667,2.1516
3.9601,0,0.0000
3.9643,0,0.0000
3.9686,1007,3.2484
3.9729,1006,3.2452
3.9772,0,0.0000
3.9815,0,0.0000
3.9857,256,0.8258
3.9899,1004,3.2387
3.9942,1006,3.2452
3.9985,0,0.0000
4.0028,0,0.0000
4.0070,1002,3.2323
4.0112,1006,3.2452
4.0154,835,2.6935
4.0196,0,0.0000
4.0239,0,0.0000
4.0280,1003,3.2355
4.0323,1007,3.2484
4.0366,96,0.3097
4.0409,0,0.0000
4.0452,73,0.2355
4.0496,1007,3.2484
4.0540,1005,3.2419
4.0584,0,0.0000
4.0627,0,0.0000
4.0671,1005,3.2419
4.0714,1005,3.2419
4.0757,656,2.1161
4.0800,0,0.0000
4.0842,0,0.0000
4.0885,1007,3.2484
4.0927,1005,3.2419
4.0970,0,0.0000
4.1013,0,0.0000
4.1058,306,0.9871
4.1100,1004,3.2387
4.1143,1005,3.2419
4.1186,0,0.0000
4.1229,0,0.0000
4.1272,1005,3.2419
4.1314,1006,3.2452
4.1356,684,2.2065
4.1398,0,0.0000
4.1441,0,0.0000
4.1484,1004,3.2387
4.1527,1004,3.2387
4.1570,0,0.0000
4.1613,0,0.0000
4.1655,195,0.6290
4.1697,1007,3.2484
4.1739,1006,3.2452
4.1782,0,0.0000
4.1824,0,0.0000
4.1866,831,2.6806
4.1908,1007,3.2484
4.1950,949,3.0613
4.1992,0,0.0000
4.2034,0,0.0000
4.2076,1003,3.2355
4.2118,1006,3.2452
4.2160,416,1.3419
4.2203,0,0.0000
4.2246,0,0.0000
4.2289,1007,3.2484
4.2332,1006,3.2452
4.2375,0,0.0000
4.2419,0,0.0000
4.2462,737,2.3774
4.2506,1006,3.2452
4.2549,977,3.1516
4.2593,0,0.0000
4.2637,0,0.0000
4.2680,1006,3.2452
4.2723,1006,3.2452
4.2766,89,0.2871
4.2808,0,0.0000
4.2851,124,0.4000
4.2894,1003,3.2355
4.2937,1004,3.2387
4.2980,0,0.0000
4.3023,0,0.0000
4.3066,996,3.2129
4.3108,1005,3.2419
4.3152,886,2.8581
4.3195,0,0.0000
4.3239,0,0.0000
4.3282,1008,3.2516
4.3324,1005,3.2419
4.3367,0,0.0000
4.3410,0,0.0000
4.3453,218,0.7032
4.3496,1006,3.2452
4.3539,1006,3.2452
4.3582,0,0.0000
4.3624,0,0.0000
4.3667,995,3.2097
4.3710,1005,3.2419
4.3752,811,2.6161
4.3795,0,0.0000
4.3838,0,0.0000
4.3880,1007,3.2484
4.3922,1005,3.2419
4.3964,45,0.1452
4.4007,0,0.0000
4.4049,0,0.0000
4.4091,1007,3.2484
4.4133,1003,3.2355
4.4175,0,0.0000
4.4217,0,0.0000
4.4259,506,1.6323
4.4302,1005,3.2419
4.4344,1004,3.2387
4.4386,0,0.0000
4.4428,0,0.0000
4.4471,1006,3.2452
4.4514,1007,3.2484
4.4556,572,1.8452
4.4599,0,0.0000
4.4641,0,0.0000
4.4683,1007,3.2484
4.4726,1007,3.2484
4.4768,0,0.0000
4.4810,0,0.0000
4.4853,182,0.5871
4.4895,1003,3.2355
4.4937,1006,3.2452
4.4979,0,0.0000
4.5022,0,0.0000
4.5064,903,2.9129
4.5107,1004,3.2387
4.5149,951,3.0677
4.5191,0,0.0000
4.5233,0,0.0000
4.5276,1004,3.2387
4.5318,1007,3.2484
4.5360,416,1.3419
4.5402,0,0.0000
4.5444,0,0.0000
4.5487,1006,3.2452
4.5530,1007,3.2484
4.5573,0,0.0000
4.5616,0,0.0000
4.5658,580,1.8710
4.5701,1006,3.2452
4.5744,1002,3.2323
4.5787,0,0.0000
4.5830,0,0.0000
4.5873,1007,3.2484
4.5916,1005,3.2419
4.5959,415,1.3387
4.6001,0,0.0000
4.6043,0,0.0000
4.6086,1004,3.2387
4.6128,1007,3.2484
4.6171,0,0.0000
4.6213,0,0.0000
4.6255,391,1.2613
4.6298,1006,3.2452
4.6340,1006,3.2452
4.6382,0,0.0000
4.6424,0,0.0000
4.6466,1004,3.2387
4.6509,1004,3.2387
4.6552,752,2.4258
4.6594,0,0.0000
4.6636,0,0.0000
4.6678,1007,3.2484
4.6720,1005,3.2419
4.6763,81,0.2613
4.6805,0,0.0000
4.6847,0,0.0000
4.6889,1003,3.2355
4.6931,1006,3.2452
4.6974,0,0.0000
4.7016,0,0.0000
4.7058,540,1.7419
4.7100,1005,3.2419
4.7142,1004,3.2387
4.7184,0,0.0000
4.7226,0,0.0000
4.7268,1004,3.2387
4.7311,1007,3.2484
4.7353,711,2.2935
4.7395,0,0.0000
4.7437,0,0.0000
4.7479,1006,3.2452
4.7522,1005,3.2419
4.7565,0,0.0000
4.7608,0,0.0000
4.7651,244,0.7871
4.7694,1006,3.2452
4.7738,1003,3.2355
4.7781,0,0.0000
4.7826,0,0.0000
4.7869,1005,3.2419
4.7913,1007,3.2484
4.7956,556,1.7935
4.7999,0,0.0000
4.8042,0,0.0000
4.8084,1007,3.2484
4.8127,1007,3.2484
4.8170,0,0.0000
4.8214,0,0.0000
4.8257,573,1.8484
4.8300,1006,3.2452
4.8343,1002,3.2323
4.8386,0,0.0000
4.8429,0,0.0000
4.8472,1003,3.2355
4.8515,1006,3.2452
4.8558,365,1.1774
4.8600,0,0.0000
4.8644,0,0.0000
4.8687,1005,3.2419
4.8730,1006,3.2452
4.8773,0,0.0000
4.8815,0,0.0000
4.8858,612,1.9742
4.8901,1004,3.2387
4.8944,998,3.2194
4.8986,0,0.0000
4.9029,0,0.0000
4.9071,1004,3.2387
4.9114,1005,3.2419
4.9157,384,1.2387
4.9200,0,0.0000
4.9242,0,0.0000
4.9285,1006,3.2452
4.9327,1006,3.2452
4.9369,0,0.0000
4.9411,0,0.0000
4.9453,391,1.2613
4.9495,1005,3.2419
4.9539,1007,3.2484
4.9581,0,0.0000
4.9623,0,0.0000
4.9665,1006,3.2452
4.9707,1007,3.2484
4.9750,812,2.6194
4.9792,0,0.0000
4.9835,0,0.0000
4.9877,1007,3.2484
4.9919,1007,3.2484
4.9961,134,0.4323
5.0003,0,0.0000
5.0046,99,0.3194
5.0090,1007,3.2484
5.0133,1007,3.2484
5.0178,0,0.0000
5.0223,0,0.0000
5.0266,1004,3.2387
5.0309,1007,3.2484
5.0352,687,2.2161
5.0394,0,0.0000
5.0438,0,0.0000
5.0481,1005,3.2419
5.0524,1006,3.2452
5.0568,0,0.0000
5.0611,0,0.0000
5.0654,541,1.7452
5.0697,1005,3.2419
5.0740,1005,3.2419
5.0782,0,0.0000
5.0825,0,0.0000
5.0868,1003,3.2355
5.0911,1007,3.2484
5.0953,636,2.0516
5.0995,0,0.0000
5.1038,0,0.0000
5.1080,1004,3.2387
5.1123,1006,3.2452
5.1166,0,0.0000
5.1209,0,0.0000
5.1253,506,1.6323
5.1296,1006,3.2452
5.1339,1006,3.2452
5.1382,0,0.0000
5.1425,0,0.0000
5.1468,1007,3.2484
5.1510,1006,3.2452
5.1552,661,2.1323
5.1594,0,0.0000
5.1637,0,0.0000
5.1679,1006,3.2452
5.1721,1007,3.2484
5.1763,0,0.0000
5.1805,0,0.0000
5.1848,263,0.8484
5.1892,1006,3.2452
5.1935,1006,3.2452
5.1978,0,0.0000
5.2021,0,0.0000
5.2064,1004,3.2387
5.2106,1005,3.2419
5.2149,779,2.5129
5.2192,0,0.0000
5.2235,0,0.0000
5.2277,1007,3.2484
5.2320,1005,3.2419
5.2362,0,0.0000
5.2404,0,0.0000
5.2446,153,0.4935
5.2488,1006,3.2452
5.2530,1004,3.2387
5.2573,0,0.0000
5.2615,0,0.0000
5.2657,711,2.2935
5.2699,1007,3.2484
5.2741,1003,3.2355
5.2784,0,0.0000
5.2826,0,0.0000
5.2870,1006,3.2452
5.2914,1007,3.2484
5.2958,152,0.4903
5.3002,0,0.0000
5.3047,175,0.5645
5.3091,1006,3.2452
5.3136,1004,3.2387
5.3180,0,0.0000
5.3225,0,0.0000
5.3270,1007,3.2484
5.3314,1004,3.2387
5.3358,201,0.6484
5.3401,0,0.0000
5.3446,168,0.5419
5.3489,1007,3.2484
5.3533,1002,3.2323
5.3576,0,0.0000
5.3620,0,0.0000
5.3664,1007,3.2484
5.3707,1006,3.2452
5.3751,664,2.1419
5.3794,0,0.0000
5.3838,0,0.0000
5.3882,1006,3.2452
5.3926,1004,3.2387
5.3969,0,0.0000
5.4013,0,0.0000
5.4057,864,2.7871
5.4101,1006,3.2452
5.4144,932,3.0065
5.4188,0,0.0000
5.4232,0,0.0000
5.4276,1003,3.2355
5.4319,1007,3.2484
5.4363,0,0.0000
5.4407,0,0.0000
5.4451,488,1.5742
5.4494,1006,3.2452
5.4538,1004,3.2387
5.4584,0,0.0000
5.4628,0,0.0000
5.4672,1005,3.2419
5.4716,1004,3.2387
5.4760,10,0.0323
5.4803,0,0.0000
5.4847,245,0.7903
5.4891,1005,3.2419
5.4934,1004,3.2387
5.4978,0,0.0000
5.5023,0,0.0000
5.5067,1004,3.2387
5.5110,1006,3.2452
5.5154,359,1.1581
5.5197,0,0.0000
5.5241,0,0.0000
5.5285,1007,3.2484
5.5329,1006,3.2452
5.5373,0,0.0000
5.5417,0,0.0000
5.5461,1006,3.2452
5.5504,1006,3.2452
5.5548,732,2.3613
5.5591,0,0.0000
5.5635,0,0.0000
5.5679,1007,3.2484
5.5722,1005,3.2419
5.5766,0,0.0000
5.5809,0,0.0000
5.5853,591,1.9065
5.5897,1004,3.2387
5.5941,997,3.2161
5.5985,0,0.0000
5.6029,0,0.0000
5.6073,1008,3.2516
5.6117,1007,3.2484
5.6161,0,0.0000
5.6205,0,0.0000
5.6249,430,1.3871
5.6293,1006,3.2452
5.6336,1006,3.2452
5.6379,0,0.0000
5.6423,0,0.0000
5.6467,1007,3.2484
5.6510,1007,3.2484
5.6553,402,1.2968
5.6596,0,0.0000
5.6640,0,0.0000
5.6683,1007,3.2484
5.6726,1006,3.2452
5.6770,0,0.0000
5.6813,0,0.0000
5.6857,893,2.8806
5.6900,1007,3.2484
5.6943,876,2.8258
5.6987,0,0.0000
5.7030,0,0.0000
5.7074,1006,3.2452
5.7117,1003,3.2355
5.7161,0,0.0000
5.7204,0,0.0000
5.7250,468,1.5097
5.7294,1007,3.2484
5.7338,1003,3.2355
5.7381,0,0.0000
5.7425,0,0.0000
5.7468,1004,3.2387
5.7512,1006,3.2452
5.7555,161,0.5194
5.7599,0,0.0000
5.7643,91,0.2935
5.7686,1006,3.2452
5.7729,1004,3.2387
5.7771,0,0.0000
5.7814,0,0.0000
5.7857,902,2.9097
5.7900,1004,3.2387
5.7943,889,2.8677
5.7986,0,0.0000
5.8029,0,0.0000
5.8072,1005,3.2419
5.8114,1005,3.2419
5.8157,74,0.2387
5.8199,0,0.0000
5.8242,128,0.4129
5.8285,1007,3.2484
5.8327,1007,3.2484
5.8369,0,0.0000
5.8411,0,0.0000
5.8453,747,2.4097
5.8495,1006,3.2452
5.8537,1004,3.2387
5.8579,0,0.0000
5.8622,0,0.0000
5.8664,1007,3.2484
5.8706,1007,3.2484
5.8748,631,2.0355
5.8790,0,0.0000
5.8833,0,0.0000
5.8875,1004,3.2387
5.8917,1007,3.2484
5.8959,0,0.0000
5.9002,0,0.0000
5.9045,314,1.0129
5.9089,1007,3.2484
5.9133,1005,3.2419
5.9176,0,0.0000
5.9219,0,0.0000
5.9262,1006,3.2452
5.9304,1006,3.2452
5.9347,648,2.0903
5.9390,0,0.0000
5.9433,0,0.0000
5.9476,1006,3.2452
5.9519,1007,3.2484
5.9561,0,0.0000
5.9603,0,0.0000
5.9646,304,0.9806
5.9689,1007,3.2484
5.9731,1006,3.2452
5.9773,0,0.0000
5.9816,0,0.0000
5.9858,1005,3.2419
5.9900,1006,3.2452
5.9943,878,2.8323
5.9985,0,0.0000
6.0027,0,0.0000
6.0070,1006,3.2452
6.0113,1004,3.2387
6.0156,52,0.1677
6.0200,0,0.0000
6.0243,195,0.6290
6.0286,1004,3.2387
6.0330,1006,3.2452
6.0373,0,0.0000
6.0416,0,0.0000
6.0459,1003,3.2355
6.0502,1005,3.2419
6.0545,736,2.3742
6.0588,0,0.0000
6.0630,0,0.0000
6.0673,1004,3.2387
6.0716,1004,3.2387
6.0759,0,0.0000
6.0801,0,0.0000
6.0844,236,0.7613
6.0887,1007,3.2484
6.0930,1006,3.2452
6.0972,0,0.0000
6.1014,0,0.0000
6.1057,984,3.1742
6.1099,1006,3.2452
6.1141,867,2.7968
6.1183,0,0.0000
6.1225,0,0.0000
6.1267,1004,3.2387
6.1310,1006,3.2452
6.1352,270,0.8710
6.1394,0,0.0000
6.1436,0,0.0000
6.1478,1005,3.2419
6.1520,1006,3.2452
6.1562,0,0.0000
6.1605,0,0.0000
6.1647,370,1.1935
6.1689,1005,3.2419
6.1731,1005,3.2419
6.1773,0,0.0000
6.1815,0,0.0000
6.1858,1003,3.2355
6.1900,1006,3.2452
6.1942,799,2.5774
6.1985,0,0.0000
6.2027,0,0.0000
6.2070,1006,3.2452
6.2112,1005,3.2419
6.2154,93,0.3000
6.2197,0,0.0000
6.2239,73,0.2355
6.2281,1006,3.2452
6.2325,1005,3.2419
6.2368,0,0.0000
6.2411,0,0.0000
6.2455,1002,3.2323
6.2499,1005,3.2419
6.2542,827,2.6677
6.2585,0,0.0000
6.2628,0,0.0000
6.2671,1006,3.2452
6.2714,1005,3.2419
6.2756,0,0.0000
6.2798,0,0.0000
6.2841,158,0.5097
6.2883,1006,3.2452
6.2925,1006,3.2452
6.2968,0,0.0000
6.3010,0,0.0000
6.3052,783,2.5258
6.3095,1006,3.2452
6.3139,894,2.8839
6.3182,0,0.0000
6.3226,0,0.0000
6.3269,1006,3.2452
6.3312,1007,3.2484
6.3354,0,0.0000
6.3398,0,0.0000
6.3441,160,0.5161
6.3484,1004,3.2387
6.3527,1004,3.2387
6.3570,0,0.0000
6.3613,0,0.0000
6.3656,995,3.2097
6.3699,1006,3.2452
6.3741,742,2.3935
6.3784,0,0.0000
6.3826,0,0.0000
6.3868,1006,3.2452
6.3911,1007,3.2484
6.3953,11,0.0355
6.3995,0,0.0000
6.4038,8,0.0258
6.4080,1007,3.2484
6.4122,1006,3.2452
6.4165,0,0.0000
6.4207,0,0.0000
6.4249,596,1.9226
6.4291,1007,3.2484
6.4334,1000,3.2258
6.4376,0,0.0000
6.4418,0,0.0000
6.4461,1006,3.2452
6.4504,1006,3.2452
6.4547,363,1.1710
6.4590,0,0.0000
6.4633,0,0.0000
6.4676,1004,3.2387
6.4719,1007,3.2484
6.4763,0,0.0000
6.4806,0,0.0000
6.4849,631,2.0355
6.4893,1007,3.2484
6.4936,930,3.0000
6.4980,0,0.0000
6.5023,0,0.0000
6.5067,1004,3.2387
6.5110,1005,3.2419
6.5153,0,0.0000
6.5196,0,0.0000
6.5240,141,0.4548
6.5283,1005,3.2419
6.5326,1004,3.2387
6.5369,0,0.0000
6.5412,0,0.0000
6.5455,1004,3.2387
6.5498,1007,3.2484
6.5541,728,2.3484
6.5583,0,0.0000
6.5626,0,0.0000
6.5669,1007,3.2484
6.5713,1005,3.2419
6.5756,0,0.0000
6.5798,0,0.0000
6.5841,214,0.6903
6.5884,1004,3.2387
6.5927,1006,3.2452
6.5970,0,0.0000
6.6013,0,0.0000
6.6056,1001,3.2290
6.6099,1004,3.2387
6.6141,648,2.0903
6.6184,0,0.0000
6.6227,0,0.0000
6.6270,1004,3.2387
6.6313,1007,3.2484
6.6356,0,0.0000
6.6399,0,0.0000
6.6442,280,0.9032
6.6484,1006,3.2452
6.6527,1004,3.2387
6.6570,0,0.0000
6.6613,0,0.0000
6.6655,1005,3.2419
6.6698,1007,3.2484
6.6741,704,2.2710
6.6784,0,0.0000
6.6826,0,0.0000
6.6869,1005,3.2419
6.6912,1006,3.2452
6.6956,0,0.0000
6.6999,0,0.0000
6.7042,357,1.1516
6.7085,1008,3.2516
6.7128,1002,3.2323
6.7171,0,0.0000
6.7214,0,0.0000
6.7257,1006,3.2452
6.7300,1004,3.2387
6.7343,579,1.8677
6.7386,0,0.0000
6.7429,0,0.0000
6.7473,1007,3.2484
6.7516,1006,3.2452
6.7559,0,0.0000
6.7602,0,0.0000
6.7645,538,1.7355
6.7688,1003,3.2355
6.7730,1003,3.2355
6.7773,0,0.0000
6.7816,0,0.0000
6.7859,1006,3.2452
6.7902,1006,3.2452
6.7945,425,1.3710
6.7988,0,0.0000
6.8030,0,0.0000
6.8073,1006,3.2452
6.8115,1003,3.2355
6.8158,0,0.0000
6.8200,0,0.0000
6.8243,419,1.3516
6.8286,1006,3.2452
6.8329,1004,3.2387
6.8372,0,0.0000
6.8415,0,0.0000
6.8458,1005,3.2419
6.8501,1007,3.2484
6.8544,454,1.4645
6.8586,0,0.0000
6.8628,0,0.0000
6.8670,1004,3.2387
6.8713,1006,3.2452
6.8755,0,0.0000
6.8797,0,0.0000
6.8839,225,0.7258
6.8881,1006,3.2452
6.8924,1005,3.2419
6.8966,0,0.0000
6.9008,0,0.0000
6.9051,952,3.0710
6.9094,1004,3.2387
6.9138,759,2.4484
6.9181,0,0.0000
6.9224,0,0.0000
6.9267,1005,3.2419
6.9310,1004,3.2387
6.9353,0,0.0000
6.9397,0,0.0000
6.9440,260,0.8387
6.9483,1006,3.2452
6.9526,1004,3.2387
6.9568,0,0.0000
6.9611,0,0.0000
6.9654,1006,3.2452
6.9697,1006,3.2452
6.9740,599,1.9323
6.9784,0,0.0000
6.9828,0,0.0000
6.9872,1007,3.2484
6.9916,1005,3.2419
6.9961,0,0.0000
7.0005,0,0.0000
7.0049,858,2.7677
7.0094,1008,3.2516
7.0139,619,1.9968
7.0184,0,0.0000
7.0228,0,0.0000
7.0272,1006,3.2452
7.0316,1004,3.2387
7.0360,0,0.0000
7.0404,0,0.0000
7.0448,810,2.6129
7.0491,1008,3.2516
7.0535,860,2.7742
7.0579,0,0.0000
7.0623,0,0.0000
7.0666,1007,3.2484
7.0710,1006,3.2452
7.0753,0,0.0000
7.0797,0,0.0000
7.0841,435,1.4032
7.0885,1007,3.2484
7.0928,1002,3.2323
7.0972,0,0.0000
7.1016,0,0.0000
7.1060,1004,3.2387
7.1104,1004,3.2387
7.1148,127,0.4097
7.1191,0,0.0000
7.1234,110,0.3548
7.1278,1007,3.2484
7.1322,1004,3.2387
7.1365,0,0.0000
7.1409,0,0.0000
7.1453,1005,3.2419
7.1497,1005,3.2419
7.1540,553,1.7839
7.1584,0,0.0000
7.1627,0,0.0000
7.1671,1006,3.2452
7.1714,1005,3.2419
7.1758,0,0.0000
7.1802,0,0.0000
7.1846,699,2.2548
7.1890,1004,3.2387
7.1933,870,2.8065
7.1977,0,0.0000
7.2021,0,0.0000
7.2064,1007,3.2484
7.2109,1006,3.2452
7.2152,0,0.0000
7.2195,0,0.0000
7.2239,311,1.0032
7.2283,1007,3.2484
7.2327,1002,3.2323
7.2371,0,0.0000
7.2415,0,0.0000
7.2459,1006,3.2452
7.2503,1005,3.2419
7.2547,34,0.1097
7.2591,0,0.0000
7.2635,114,0.3677
7.2679,1007,3.2484
7.2723,1005,3.2419
7.2766,0,0.0000
7.2810,0,0.0000
7.2853,1006,3.2452
7.2897,1007,3.2484
7.2940,459,1.4806
7.2984,0,0.0000
7.3028,0,0.0000
7.3072,1004,3.2387
7.3116,1007,3.2484
7.3160,0,0.0000
7.3203,0,0.0000
7.3247,873,2.8161
7.3291,1005,3.2419
7.3335,796,2.5677
7.3378,0,0.0000
7.3422,0,0.0000
7.3466,1004,3.2387
7.3510,1008,3.2516
7.3554,0,0.0000
7.3598,0,0.0000
7.3641,479,1.5452
7.3684,1007,3.2484
7.3728,1001,3.2290
7.3771,0,0.0000
7.3815,0,0.0000
7.3858,1007,3.2484
7.3902,1006,3.2452
7.3945,106,0.3419
7.3989,0,0.0000
7.4033,66,0.2129
7.4076,1008,3.2516
7.4120,1006,3.2452
7.4163,0,0.0000
7.4206,0,0.0000
7.4250,1003,3.2355
7.4293,1006,3.2452
7.4337,654,2.1097
7.4380,0,0.0000
7.4424,0,0.0000
7.4467,1006,3.2452
7.4510,1003,3.2355
7.4554,0,0.0000
7.4598,0,0.0000
7.4641,538,1.7355
7.4684,1006,3.2452
7.4727,1002,3.2323
7.4771,0,0.0000
7.4814,0,0.0000
7.4858,1008,3.2516
7.4901,1007,3.2484
7.4945,139,0.4484
7.4988,0,0.0000
7.5031,66,0.2129
7.5074,1007,3.2484
7.5118,1004,3.2387
7.5162,0,0.0000
7.5205,0,0.0000
7.5248,1001,3.2290
7.5290,1004,3.2387
7.5333,829,2.6742
7.5376,0,0.0000
7.5418,0,0.0000
7.5461,1006,3.2452
7.5503,1004,3.2387
7.5545,118,0.3806
7.5587,0,0.0000
7.5629,0,0.0000
7.5671,1005,3.2419
7.5714,1006,3.2452
7.5756,0,0.0000
7.5798,0,0.0000
7.5840,523,1.6871
7.5883,1006,3.2452
7.5925,1004,3.2387
7.5968,0,0.0000
7.6010,0,0.0000
7.6053,1003,3.2355
7.6095,1005,3.2419
7.6138,568,1.8323
7.6180,0,0.0000
7.6222,0,0.0000
7.6266,1006,3.2452
7.6309,1007,3.2484
7.6351,0,0.0000
7.6393,0,0.0000
7.6436,272,0.8774
7.6478,1006,3.2452
7.6520,1003,3.2355
7.6562,0,0.0000
7.6604,0,0.0000
7.6646,944,3.0452
7.6688,1005,3.2419
7.6731,873,2.8161
7.6774,0,0.0000
7.6816,0,0.0000
7.6858,1006,3.2452
7.6900,1007,3.2484
7.6942,269,0.8677
7.6984,0,0.0000
7.7026,0,0.0000
7.7068,1005,3.2419
7.7110,1005,3.2419
7.7153,0,0.0000
7.7195,0,0.0000
7.7238,440,1.4194
7.7280,1007,3.2484
7.7323,1003,3.2355
7.7365,0,0.0000
7.7407,0,0.0000
7.7449,1004,3.2387
7.7492,1007,3.2484
7.7535,594,1.9161
7.7578,0,0.0000
7.7621,0,0.0000
7.7663,1004,3.2387
7.7705,1007,3.2484
7.7748,0,0.0000
7.7790,0,0.0000
7.7832,122,0.3935
7.7875,1005,3.2419
7.7917,1007,3.2484
7.7959,0,0.0000
7.8001,0,0.0000
7.8043,726,2.3419
7.8086,1006,3.2452
7.8128,924,2.9806
7.8170,0,0.0000
7.8212,0,0.0000
7.8254,1006,3.2452
7.8296,1005,3.2419
7.8339,355,1.1452
7.8381,0,0.0000
7.8423,0,0.0000
7.8466,1007,3.2484
7.8508,1006,3.2452
7.8550,0,0.0000
7.8592,0,0.0000
7.8634,236,0.7613
7.8676,1006,3.2452
7.8718,1005,3.2419
7.8761,0,0.0000
7.8803,0,0.0000
7.8845,938,3.0258
7.8887,1006,3.2452
7.8929,880,2.8387
7.8972,0,0.0000
7.9014,0,0.0000
7.9056,1007,3.2484
7.9098,1006,3.2452
7.9140,326,1.0516
7.9182,0,0.0000
7.9225,0,0.0000
7.9268,1005,3.2419
7.9310,1007,3.2484
7.9352,0,0.0000
7.9394,0,0.0000
7.9436,440,1.4194
7.9478,1006,3.2452
7.9520,1002,3.2323
7.9563,0,0.0000
7.9605,0,0.0000
7.9647,1005,3.2419
7.9689,1007,3.2484
7.9731,807,2.6032
7.9773,0,0.0000
7.9816,0,0.0000
7.9859,1008,3.2516
7.9902,1007,3.2484
7.9946,0,0.0000
7.9989,0,0.0000
8.0033,212,0.6839
8.0076,1005,3.2419
8.0119,1006,3.2452
8.0161,0,0.0000
8.0204,0,0.0000
8.0247,1004,3.2387
8.0291,1006,3.2452
8.0335,460,1.4839
8.0378,0,0.0000
8.0421,0,0.0000
8.0465,1005,3.2419
8.0508,1005,3.2419
8.0551,0,0.0000
8.0594,0,0.0000
8.0637,441,1.4226
8.0680,1007,3.2484
8.0722,1001,3.2290
8.0765,0,0.0000
8.0807,0,0.0000
8.0849,1006,3.2452
8.0891,1006,3.2452
8.0933,622,2.0065
8.0976,0,0.0000
8.1018,0,0.0000
8.1060,1005,3.2419
8.1102,1004,3.2387
8.1144,0,0.0000
8.1186,0,0.0000
8.1228,71,0.2290
8.1270,1007,3.2484
8.1312,1007,3.2484
8.1354,0,0.0000
8.1397,0,0.0000
8.1439,634,2.0452
8.1481,1003,3.2355
8.1523,1000,3.2258
8.1565,0,0.0000
8.1607,0,0.0000
8.1650,1004,3.2387
8.1693,1005,3.2419
8.1736,411,1.3258
8.1779,0,0.0000
8.1822,0,0.0000
8.1866,1007,3.2484
8.1908,1005,3.2419
8.1951,0,0.0000
8.1995,0,0.0000
8.2038,624,2.0129
8.2082,1007,3.2484
8.2124,986,3.1806
8.2167,0,0.0000
8.2210,0,0.0000
8.2253,1007,3.2484
8.2295,1005,3.2419
8.2338,284,0.9161
8.2380,0,0.0000
8.2422,0,0.0000
8.2464,1007,3.2484
8.2506,1005,3.2419
8.2548,0,0.0000
8.2590,0,0.0000
8.2632,331,1.0677
8.2675,1007,3.2484
8.2717,1005,3.2419
8.2760,0,0.0000
8.2802,0,0.0000
8.2844,1004,3.2387
8.2887,1007,3.2484
8.2929,814,2.6258
8.2971,0,0.0000
8.3013,0,0.0000
8.3056,1006,3.2452
8.3099,1005,3.2419
8.3142,0,0.0000
8.3185,0,0.0000
8.3228,157,0.5065
8.3271,1006,3.2452
8.3314,1006,3.2452
8.3357,0,0.0000
8.3400,0,0.0000
8.3443,1005,3.2419
8.3486,1007,3.2484
8.3530,737,2.3774
8.3573,0,0.0000
8.3616,0,0.0000
8.3659,1003,3.2355
8.3701,1006,3.2452
8.3744,0,0.0000
8.3787,0,0.0000
8.3830,263,0.8484
8.3872,1006,3.2452
8.3915,1006,3.2452
8.3958,0,0.0000
8.4001,0,0.0000
8.4043,1005,3.2419
8.4086,1007,3.2484
8.4128,801,2.5839
8.4170,0,0.0000
8.4212,0,0.0000
8.4254,1004,3.2387
8.4296,1005,3.2419
8.4339,153,0.4935
8.4381,0,0.0000
8.4423,0,0.0000
8.4465,1004,3.2387
8.4507,1006,3.2452
8.4549,0,0.0000
8.4592,0,0.0000
8.4634,484,1.5613
8.4677,1006,3.2452
8.4720,1005,3.2419
8.4762,0,0.0000
8.4804,0,0.0000
8.4847,1007,3.2484
8.4889,1004,3.2387
8.4932,563,1.8161
8.4975,0,0.0000
8.5018,0,0.0000
8.5062,1004,3.2387
8.5105,1007,3.2484
8.5148,0,0.0000
8.5192,0,0.0000
8.5235,612,1.9742
8.5278,1005,3.2419
8.5321,1002,3.2323
8.5364,0,0.0000
8.5406,0,0.0000
8.5448,1005,3.2419
8.5490,1005,3.2419
8.5532,519,1.6742
8.5574,0,0.0000
8.5616,0,0.0000
8.5658,1005,3.2419
8.5700,1007,3.2484
8.5743,0,0.0000
8.5786,0,0.0000
8.5829,215,0.6935
8.5872,1007,3.2484
8.5915,1004,3.2387
8.5957,0,0.0000
8.6000,0,0.0000
8.6042,987,3.1839
8.6085,1007,3.2484
8.6128,640,2.0645
8.6172,0,0.0000
8.6215,0,0.0000
8.6258,1005,3.2419
8.6301,1007,3.2484
8.6345,0,0.0000
8.6388,0,0.0000
8.6431,338,1.0903
8.6488,1007,3.2484
8.6531,485,1.5645
8.6574,0,0.0000
8.6617,0,0.0000
8.6659,1006,3.2452
8.6702,1006,3.2452
8.6745,0,0.0000
8.6788,0,0.0000
8.6830,299,0.9645
8.6873,1007,3.2484
8.6915,1004,3.2387
8.6957,0,0.0000
8.6999,0,0.0000
8.7041,1000,3.2258
8.7083,1005,3.2419
8.7125,842,2.7161
8.7168,0,0.0000
8.7210,0,0.0000
8.7252,1007,3.2484
8.7294,1007,3.2484
8.7336,191,0.6161
8.7379,0,0.0000
8.7422,0,0.0000
8.7464,1005,3.2419
8.7506,1006,3.2452
8.7549,0,0.0000
8.7591,0,0.0000
8.7633,575,1.8548
8.7675,1004,3.2387
8.7718,1004,3.2387
8.7760,0,0.0000
8.7803,0,0.0000
8.7846,1005,3.2419
8.7889,1004,3.2387
8.7933,367,1.1839
8.7977,0,0.0000
8.8021,0,0.0000
8.8065,1006,3.2452
8.8108,1004,3.2387
8.8151,0,0.0000
8.8194,0,0.0000
8.8237,789,2.5452
8.8280,1007,3.2484
8.8323,863,2.7839
8.8366,0,0.0000
8.8408,0,0.0000
8.8451,1006,3.2452
8.8494,1008,3.2516
8.8537,28,0.0903
8.8579,0,0.0000
8.8622,0,0.0000
8.8666,1004,3.2387
8.8709,1004,3.2387
8.8752,0,0.0000
8.8795,0,0.0000
8.8839,897,2.8935
8.8881,1004,3.2387
8.8923,853,2.7516
8.8965,0,0.0000
8.9008,0,0.0000
8.9050,1006,3.2452
8.9093,1004,3.2387
8.9135,183,0.5903
8.9177,0,0.0000
8.9219,0,0.0000
8.9261,1006,3.2452
8.9303,1007,3.2484
8.9345,0,0.0000
8.9388,0,0.0000
8.9430,559,1.8032
8.9487,1004,3.2387
8.9530,483,1.5581
8.9572,0,0.0000
8.9615,0,0.0000
8.9658,1006,3.2452
8.9700,1004,3.2387
8.9742,0,0.0000
8.9784,0,0.0000
8.9826,356,1.1484
8.9869,1006,3.2452
8.9911,1002,3.2323
8.9953,0,0.0000
8.9995,0,0.0000
9.0038,1005,3.2419
9.0080,1005,3.2419
9.0123,822,2.6516
9.0166,0,0.0000
9.0209,0,0.0000
9.0252,1003,3.2355
9.0296,1006,3.2452
9.0340,0,0.0000
9.0384,0,0.0000
9.0427,410,1.3226
9.0470,1007,3.2484
9.0512,1005,3.2419
9.0556,0,0.0000
9.0605,0,0.0000
9.0649,1008,3.2516
9.0691,1003,3.2355
9.0735,30,0.0968
9.0778,0,0.0000
9.0821,136,0.4387
9.0864,1000,3.2258
9.0907,1007,3.2484
9.0950,0,0.0000
9.0996,0,0.0000
9.1039,1006,3.2452
9.1083,1007,3.2484
9.1126,615,1.9839
9.1169,0,0.0000
9.1212,0,0.0000
9.1254,1006,3.2452
9.1296,1006,3.2452
9.1338,0,0.0000
9.1380,0,0.0000
9.1423,229,0.7387
9.1465,1007,3.2484
9.1507,1003,3.2355
9.1549,0,0.0000
9.1591,0,0.0000
9.1633,893,2.8806
9.1676,1006,3.2452
9.1718,975,3.1452
9.1761,0,0.0000
9.1803,0,0.0000
9.1845,1004,3.2387
9.1887,1007,3.2484
9.1929,421,1.3581
9.1971,0,0.0000
9.2014,0,0.0000
9.2056,1005,3.2419
9.2098,1005,3.2419
9.2140,0,0.0000
9.2182,0,0.0000
9.2224,311,1.0032
9.2266,1004,3.2387
9.2308,1004,3.2387
9.2351,0,0.0000
9.2393,0,0.0000
9.2435,998,3.2194
9.2478,1007,3.2484
9.2522,774,2.4968
9.2565,0,0.0000
9.2609,0,0.0000
9.2652,1005,3.2419
9.2697,1006,3.2452
9.2740,0,0.0000
9.2782,0,0.0000
9.2825,358,1.1548
9.2867,1007,3.2484
9.2911,1006,3.2452
9.2954,0,0.0000
9.2996,0,0.0000
9.3039,1003,3.2355
9.3081,1005,3.2419
9.3123,690,2.2258
9.3166,0,0.0000
9.3208,0,0.0000
9.3250,1005,3.2419
9.3292,1005,3.2419
9.3334,0,0.0000
9.3377,0,0.0000
9.3419,118,0.3806
9.3462,1006,3.2452
9.3504,1007,3.2484
9.3547,0,0.0000
9.3590,0,0.0000
9.3634,886,2.8581
9.3677,1007,3.2484
9.3720,828,2.6710
9.3764,0,0.0000
9.3806,0,0.0000
9.3850,1006,3.2452
9.3893,1004,3.2387
9.3936,0,0.0000
9.3979,0,0.0000
9.4023,228,0.7355
9.4066,1004,3.2387
9.4110,1007,3.2484
9.4153,0,0.0000
9.4196,0,0.0000
9.4239,1006,3.2452
9.4282,1006,3.2452
9.4326,556,1.7935
9.4369,0,0.0000
9.4413,0,0.0000
9.4458,1007,3.2484
9.4502,1005,3.2419
9.4547,0,0.0000
9.4591,0,0.0000
9.4636,976,3.1484
9.4680,1005,3.2419
9.4724,575,1.8548
9.4769,0,0.0000
9.4814,0,0.0000
9.4858,1004,3.2387
9.4902,1007,3.2484
9.4946,0,0.0000
9.4990,0,0.0000
9.5034,842,2.7161
9.5078,1006,3.2452
9.5121,687,2.2161
9.5169,0,0.0000
9.5213,0,0.0000
9.5257,1005,3.2419
9.5300,1004,3.2387
9.5344,0,0.0000
9.5387,0,0.0000
9.5431,637,2.0548
9.5475,1005,3.2419
9.5518,844,2.7226
9.5562,0,0.0000
9.5606,0,0.0000
9.5650,1007,3.2484
9.5693,1007,3.2484
9.5737,0,0.0000
9.5781,0,0.0000
9.5824,347,1.1194
9.5868,1005,3.2419
9.5912,1003,3.2355
9.5955,0,0.0000
9.5998,0,0.0000
9.6042,1003,3.2355
9.6086,1007,3.2484
9.6129,280,0.9032
9.6173,0,0.0000
9.6216,0,0.0000
9.6260,1006,3.2452
9.6304,1003,3.2355
9.6348,0,0.0000
9.6392,0,0.0000
9.6435,1002,3.2323
9.6479,1004,3.2387
9.6523,655,2.1129
9.6567,0,0.0000
9.6610,0,0.0000
9.6654,1005,3.2419
9.6698,1005,3.2419
9.6742,0,0.0000
9.6786,0,0.0000
9.6830,726,2.3419
9.6874,1006,3.2452
9.6918,858,2.7677
9.6961,0,0.0000
9.7005,0,0.0000
9.7049,1004,3.2387
9.7093,1005,3.2419
9.7138,0,0.0000
9.7182,0,0.0000
9.7226,448,1.4452
9.7270,1007,3.2484
9.7314,986,3.1806
9.7358,0,0.0000
9.7401,0,0.0000
9.7445,1005,3.2419
9.7489,1007,3.2484
9.7533,0,0.0000
9.7577,0,0.0000
9.7621,193,0.6226
9.7665,1004,3.2387
9.7708,1004,3.2387
9.7752,0,0.0000
9.7797,0,0.0000
9.7840,1007,3.2484
9.7884,1007,3.2484
9.7928,266,0.8581
9.7972,0,0.0000
9.8015,0,0.0000
9.8059,1003,3.2355
9.8102,1006,3.2452
9.8146,0,0.0000
9.8191,0,0.0000
9.8234,1003,3.2355
9.8278,1005,3.2419
9.8322,603,1.9452
9.8366,0,0.0000
9.8410,0,0.0000
9.8454,1005,3.2419
9.8513,996,3.2129
9.8557,0,0.0000
9.8601,0,0.0000
9.8644,1005,3.2419
9.8688,1006,3.2452
9.8731,29,0.0935
9.8775,0,0.0000
9.8819,178,0.5742
9.8863,1005,3.2419
9.8907,1007,3.2484
9.8950,0,0.0000
9.8993,0,0.0000
9.9038,1006,3.2452
9.9081,1005,3.2419
9.9125,404,1.3032
9.9168,0,0.0000
9.9212,0,0.0000
9.9255,1007,3.2484
9.9298,1006,3.2452
9.9342,0,0.0000
9.9385,0,0.0000
9.9429,723,2.3323
9.9472,1005,3.2419
9.9516,881,2.8419
9.9559,0,0.0000
9.9603,0,0.0000
9.9646,1005,3.2419
9.9690,1006,3.2452
9.9733,0,0.0000
9.9777,0,0.0000
9.9820,250,0.8065
9.9863,1005,3.2419
9.9907,1006,3.2452
9.9950,0,0.0000
9.9993,0,0.0000
10.0037,1005,3.2419
10.0080,1005,3.2419
10.0124,472,1.5226
10.0168,0,0.0000
10.0212,0,0.0000
10.0258,1005,3.2419
10.0302,1003,3.2355
10.0345,0,0.0000
10.0389,0,0.0000
10.0432,1000,3.2258
10.0476,1004,3.2387
10.0519,713,2.3000
10.0563,0,0.0000
10.0606,0,0.0000
10.0649,1008,3.2516
10.0693,1007,3.2484
10.0736,0,0.0000
10.0779,0,0.0000
10.0823,408,1.3161
10.0866,1007,3.2484
10.0909,1003,3.2355
10.0952,0,0.0000
10.0995,0,0.0000
10.1039,1007,3.2484
10.1082,1008,3.2516
10.1124,341,1.1000
10.1167,0,0.0000
10.1210,0,0.0000
10.1253,1007,3.2484
10.1296,1006,3.2452
10.1339,0,0.0000
10.1382,0,0.0000
10.1424,475,1.5323
10.1467,1004,3.2387
10.1510,1000,3.2258
10.1553,0,0.0000
10.1597,0,0.0000
10.1640,1005,3.2419
10.1683,1007,3.2484
10.1725,233,0.7516
10.1769,0,0.0000
10.1812,0,0.0000
10.1854,1007,3.2484
10.1897,1007,3.2484
10.1939,0,0.0000
10.1982,0,0.0000
10.2025,562,1.8129
10.2068,1004,3.2387
10.2110,997,3.2161
10.2153,0,0.0000
10.2196,0,0.0000
10.2239,1005,3.2419
10.2282,1005,3.2419
10.2326,242,0.7806
10.2369,0,0.0000
10.2412,0,0.0000
10.2454,1006,3.2452
10.2497,1005,3.2419
10.2539,0,0.0000
10.2583,0,0.0000
10.2626,660,2.1290
10.2668,1007,3.2484
10.2711,998,3.2194
10.2753,0,0.0000
10.2797,0,0.0000
10.2840,1007,3.2484
10.2882,1005,3.2419
10.2924,300,0.9677
10.2967,0,0.0000
10.3009,0,0.0000
10.3051,1006,3.2452
10.3094,1006,3.2452
10.3136,0,0.0000
10.3178,0,0.0000
10.3220,280,0.9032
10.3262,1004,3.2387
10.3304,1007,3.2484
10.3346,0,0.0000
10.3388,0,0.0000
10.3431,957,3.0871
10.3473,1006,3.2452
10.3516,737,2.3774
10.3559,0,0.0000
10.3602,0,0.0000
10.3645,1007,3.2484
10.3688,1006,3.2452
10.3731,0,0.0000
10.3774,0,0.0000
10.3817,164,0.5290
10.3860,1006,3.2452
10.3903,1004,3.2387
10.3946,0,0.0000
10.3989,0,0.0000
10.4032,1005,3.2419
10.4075,1007,3.2484
10.4118,666,2.1484
10.4161,0,0.0000
10.4203,0,0.0000
10.4245,1005,3.2419
10.4288,1006,3.2452
10.4330,0,0.0000
10.4373,0,0.0000
10.4416,214,0.6903
10.4459,1006,3.2452
10.4502,1007,3.2484
10.4546,0,0.0000
10.4589,0,0.0000
10.4634,1005,3.2419
10.4677,1005,3.2419
10.4720,568,1.8323
10.4763,0,0.0000
10.4806,0,0.0000
10.4849,1007,3.2484
10.4892,1004,3.2387
10.4935,0,0.0000
10.4978,0,0.0000
10.5021,511,1.6484
10.5064,1006,3.2452
10.5108,1000,3.2258
10.5151,0,0.0000
10.5195,0,0.0000
10.5238,1006,3.2452
10.5282,1007,3.2484
10.5325,142,0.4581
10.5368,0,0.0000
10.5411,0,0.0000
10.5454,1003,3.2355
10.5497,1005,3.2419
10.5540,0,0.0000
10.5582,0,0.0000
10.5625,689,2.2226
10.5668,1003,3.2355
10.5712,882,2.8452
10.5755,0,0.0000
10.5797,0,0.0000
10.5840,1004,3.2387
10.5883,1006,3.2452
10.5926,43,0.1387
10.5968,0,0.0000
10.6011,0,0.0000
10.6054,1006,3.2452
10.6097,1005,3.2419
10.6140,0,0.0000
10.6182,0,0.0000
10.6225,714,2.3032
10.6268,1006,3.2452
10.6312,854,2.7548
10.6355,0,0.0000
10.6398,0,0.0000
10.6441,1007,3.2484
10.6484,1007,3.2484
10.6527,0,0.0000
10.6570,0,0.0000
10.6613,102,0.3290
10.6656,1006,3.2452
10.6698,1006,3.2452
10.6741,0,0.0000
10.6783,0,0.0000
10.6824,721,2.3258
10.6867,1007,3.2484
10.6909,956,3.0839
10.6952,0,0.0000
10.6995,0,0.0000
10.7039,1007,3.2484
10.7082,1007,3.2484
10.7125,133,0.4290
10.7168,0,0.0000
10.7210,0,0.0000
10.7252,1007,3.2484
10.7294,1005,3.2419
10.7337,0,0.0000
10.7379,0,0.0000
10.7422,536,1.7290
10.7464,1004,3.2387
10.7508,976,3.1484
10.7550,0,0.0000
10.7593,0,0.0000
10.7635,1008,3.2516
10.7678,1003,3.2355
10.7720,360,1.1613
10.7762,0,0.0000
10.7804,0,0.0000
10.7846,1004,3.2387
10.7888,1008,3.2516
10.7931,0,0.0000
10.7973,0,0.0000
10.8015,236,0.7613
10.8058,1006,3.2452
10.8100,1004,3.2387
10.8143,0,0.0000
10.8185,0,0.0000
10.8227,941,3.0355
10.8269,1004,3.2387
10.8312,821,2.6484
10.8354,0,0.0000
10.8396,0,0.0000
10.8438,1006,3.2452
10.8480,1006,3.2452
10.8522,211,0.6806
10.8565,0,0.0000
10.8607,0,0.0000
10.8649,1008,3.2516
10.8691,1005,3.2419
10.8733,0,0.0000
10.8776,0,0.0000
10.8818,359,1.1581
10.8860,1006,3.2452
10.8902,1007,3.2484
10.8945,0,0.0000
10.8987,0,0.0000
10.9029,1003,3.2355
10.9071,1005,3.2419
10.9114,702,2.2645
10.9156,0,0.0000
10.9198,0,0.0000
10.9240,1004,3.2387
10.9282,1006,3.2452
10.9324,3,0.0097
10.9367,0,0.0000
10.9410,0,0.0000
10.9452,1006,3.2452
10.9495,1005,3.2419
10.9539,0,0.0000
10.9582,0,0.0000
10.9625,763,2.4613
10.9667,1006,3.2452
10.9710,820,2.6452
10.9753,0,0.0000
10.9796,0,0.0000
10.9839,1006,3.2452
10.9882,1006,3.2452
10.9925,0,0.0000
10.9968,0,0.0000
11.0011,51,0.1645
11.0053,1006,3.2452
11.0097,1004,3.2387
11.0139,0,0.0000
11.0182,0,0.0000
11.0225,863,2.7839
11.0268,1006,3.2452
11.0310,833,2.6871
11.0353,0,0.0000
11.0396,0,0.0000
11.0439,1005,3.2419
11.0482,1006,3.2452
11.0525,0,0.0000
11.0567,0,0.0000
11.0610,85,0.2742
11.0653,1005,3.2419
11.0695,1007,3.2484
11.0739,0,0.0000
11.0781,0,0.0000
11.0824,885,2.8548
11.0867,1006,3.2452
11.0910,865,2.7903
11.0952,0,0.0000
11.0995,0,0.0000
11.1038,1007,3.2484
11.1081,1005,3.2419
11.1124,0,0.0000
11.1166,0,0.0000
11.1210,62,0.2000
11.1253,1005,3.2419
11.1297,1004,3.2387
11.1340,0,0.0000
11.1383,0,0.0000
11.1426,973,3.1387
11.1469,1006,3.2452
11.1511,734,2.3677
11.1554,0,0.0000
11.1597,0,0.0000
11.1640,1004,3.2387
11.1683,1005,3.2419
11.1726,0,0.0000
11.1768,0,0.0000
11.1811,113,0.3645
11.1854,1007,3.2484
11.1897,1004,3.2387
11.1940,0,0.0000
11.1982,0,0.0000
11.2025,940,3.0323
11.2068,1005,3.2419
11.2111,736,2.3742
11.2154,0,0.0000
11.2197,0,0.0000
11.2239,1007,3.2484
11.2283,1007,3.2484
11.2325,0,0.0000
11.2368,0,0.0000
11.2411,146,0.4710
11.2454,1007,3.2484
11.2497,1006,3.2452
11.2540,0,0.0000
11.2582,0,0.0000
11.2625,1003,3.2355
11.2668,1006,3.2452
11.2711,757,2.4419
11.2754,0,0.0000
11.2797,0,0.0000
11.2840,1006,3.2452
11.2883,1004,3.2387
11.2926,0,0.0000
11.2968,0,0.0000
11.3011,223,0.7194
11.3054,1006,3.2452
11.3097,1005,3.2419
11.3140,0,0.0000
11.3183,0,0.0000
11.3225,1003,3.2355
11.3268,1004,3.2387
11.3311,743,2.3968
11.3353,0,0.0000
11.3396,0,0.0000
11.3439,1007,3.2484
11.3483,1006,3.2452
11.3545,0,0.0000
11.3588,0,0.0000
11.3631,1005,3.2419
11.3674,1005,3.2419
11.3716,338,1.0903
11.3759,0,0.0000
11.3801,0,0.0000
11.3843,1004,3.2387
11.3886,1006,3.2452
11.3928,0,0.0000
11.3970,0,0.0000
11.4012,200,0.6452
11.4054,1006,3.2452
11.4097,1004,3.2387
11.4140,0,0.0000
11.4183,0,0.0000
11.4226,1004,3.2387
11.4270,1008,3.2516
11.4313,545,1.7581
11.4356,0,0.0000
11.4400,0,0.0000
11.4443,1007,3.2484
11.4486,1006,3.2452
11.4529,0,0.0000
11.4572,0,0.0000
11.4615,419,1.3516
11.4658,1007,3.2484
11.4701,1001,3.2290
11.4744,0,0.0000
11.4786,0,0.0000
11.4829,1005,3.2419
11.4872,1004,3.2387
11.4915,415,1.3387
11.4958,0,0.0000
11.5000,0,0.0000
11.5043,1006,3.2452
11.5086,1004,3.2387
11.5129,0,0.0000
11.5171,0,0.0000
11.5214,416,1.3419
11.5257,1004,3.2387
11.5300,1002,3.2323
11.5342,0,0.0000
11.5384,0,0.0000
11.5426,1004,3.2387
11.5468,1005,3.2419
11.5510,694,2.2387
11.5552,0,0.0000
11.5594,0,0.0000
11.5636,1006,3.2452
11.5678,1005,3.2419
11.5720,23,0.0742
11.5762,0,0.0000
11.5804,0,0.0000
11.5846,1007,3.2484
11.5888,1005,3.2419
11.5930,0,0.0000
11.5972,0,0.0000
11.6014,431,1.3903
11.6057,1006,3.2452
11.6099,1004,3.2387
11.6141,0,0.0000
11.6183,0,0.0000
11.6225,1005,3.2419
11.6267,1006,3.2452
11.6309,686,2.2129
11.6352,0,0.0000
11.6394,0,0.0000
11.6436,1006,3.2452
11.6480,1007,3.2484
11.6523,0,0.0000
11.6565,0,0.0000
11.6608,118,0.3806
11.6650,1007,3.2484
11.6692,1006,3.2452
11.6735,0,0.0000
11.6777,0,0.0000
11.6820,821,2.6484
11.6863,1007,3.2484
11.6906,855,2.7581
11.6949,0,0.0000
11.6992,0,0.0000
11.7035,1005,3.2419
11.7078,1005,3.2419
11.7122,0,0.0000
11.7166,0,0.0000
11.7209,201,0.6484
11.7253,1006,3.2452
11.7296,1004,3.2387
11.7339,0,0.0000
11.7382,0,0.0000
11.7425,1003,3.2355
11.7468,1004,3.2387
11.7511,531,1.7129
11.7554,0,0.0000
11.7596,0,0.0000
11.7640,1007,3.2484
11.7683,1007,3.2484
11.7726,0,0.0000
11.7769,0,0.0000
11.7811,274,0.8839
11.7854,1006,3.2452
11.7897,1003,3.2355
11.7940,0,0.0000
11.7982,0,0.0000
11.8025,1004,3.2387
11.8068,1006,3.2452
11.8111,495,1.5968
11.8153,0,0.0000
11.8196,0,0.0000
11.8238,1005,3.2419
11.8280,1005,3.2419
11.8322,0,0.0000
11.8364,0,0.0000
11.8407,88,0.2839
11.8449,1007,3.2484
11.8491,1006,3.2452
11.8533,0,0.0000
11.8576,0,0.0000
11.8618,716,2.3097
11.8660,1003,3.2355
11.8702,951,3.0677
11.8745,0,0.0000
11.8787,0,0.0000
11.8830,1006,3.2452
11.8872,1004,3.2387
11.8914,400,1.2903
11.8956,0,0.0000
11.8998,0,0.0000
11.9040,1006,3.2452
11.9082,1003,3.2355
11.9125,0,0.0000
11.9168,0,0.0000
11.9211,409,1.3194
11.9254,1005,3.2419
11.9297,1004,3.2387
11.9340,0,0.0000
11.9383,0,0.0000
11.9426,1004,3.2387
11.9469,1006,3.2452
11.9512,472,1.5226
11.9554,0,0.0000
11.9596,0,0.0000
11.9639,1005,3.2419
11.9681,1007,3.2484
11.9723,0,0.0000
11.9765,0,0.0000
11.9808,199,0.6419
11.9850,1005,3.2419
11.9892,1005,3.2419
11.9934,0,0.0000
11.9976,0,0.0000
12.0018,786,2.5355
12.0060,1004,3.2387
12.0102,890,2.8710
12.0145,0,0.0000
12.0187,0,0.0000
12.0230,1006,3.2452
12.0272,1007,3.2484
12.0314,234,0.7548
12.0356,0,0.0000
12.0398,0,0.0000
12.0441,1006,3.2452
12.0483,1007,3.2484
12.0525,0,0.0000
12.0567,0,0.0000
12.0609,281,0.9065
12.0651,1007,3.2484
12.0693,1005,3.2419
12.0736,0,0.0000
12.0778,0,0.0000
12.0820,975,3.1452
12.0862,1005,3.2419
12.0904,825,2.6613
12.0947,0,0.0000
12.0989,0,0.0000
12.1031,1005,3.2419
12.1073,1005,3.2419
12.1115,189,0.6097
12.1158,0,0.0000
12.1200,0,0.0000
12.1242,1006,3.2452
12.1285,1004,3.2387
12.1327,0,0.0000
12.1369,0,0.0000
12.1411,450,1.4516
12.1453,1007,3.2484
12.1495,1003,3.2355
12.1538,0,0.0000
12.1580,0,0.0000
12.1622,1004,3.2387
12.1664,1006,3.2452
12.1707,646,2.0839
12.1749,0,0.0000
12.1791,0,0.0000
12.1833,1006,3.2452
12.1876,1004,3.2387
12.1918,0,0.0000
12.1961,0,0.0000
12.2005,233,0.7516
12.2048,1006,3.2452
12.2092,1003,3.2355
12.2135,0,0.0000
12.2178,0,0.0000
12.2221,1005,3.2419
12.2264,1005,3.2419
12.2307,576,1.8581
12.2350,0,0.0000
12.2393,0,0.0000
12.2436,1004,3.2387
12.2479,1007,3.2484
12.2522,0,0.0000
12.2565,0,0.0000
12.2607,375,1.2097
12.2650,1007,3.2484
12.2692,1004,3.2387
12.2735,0,0.0000
12.2777,0,0.0000
12.2819,1004,3.2387
12.2861,1007,3.2484
12.2903,758,2.4452
12.2945,0,0.0000
12.2988,0,0.0000
12.3031,1003,3.2355
12.3074,1007,3.2484
12.3117,0,0.0000
12.3160,0,0.0000
12.3204,241,0.7774
12.3247,1003,3.2355
12.3293,1004,3.2387
12.3337,0,0.0000
12.3382,0,0.0000
12.3426,1005,3.2419
12.3470,1006,3.2452
12.3514,33,0.1065
12.3559,0,0.0000
12.3603,257,0.8290
12.3648,1004,3.2387
12.3692,1004,3.2387
12.3736,0,0.0000
12.3781,0,0.0000
12.3825,1007,3.2484
12.3869,1005,3.2419
12.3913,101,0.3258
12.3957,0,0.0000
12.4001,165,0.5323
12.4045,1007,3.2484
12.4089,1004,3.2387
12.4132,0,0.0000
12.4176,0,0.0000
12.4219,1007,3.2484
12.4263,1004,3.2387
12.4307,502,1.6194
12.4351,0,0.0000
12.4395,0,0.0000
12.4439,1006,3.2452
12.4483,1007,3.2484
12.4526,0,0.0000
12.4570,0,0.0000
12.4614,960,3.0968
12.4658,1004,3.2387
12.4701,827,2.6677
12.4744,0,0.0000
12.4788,0,0.0000
12.4831,1005,3.2419
12.4875,1003,3.2355
12.4919,0,0.0000
12.4963,0,0.0000
12.5006,488,1.5742
12.5050,1007,3.2484
12.5094,1003,3.2355
12.5138,0,0.0000
12.5182,0,0.0000
12.5226,1006,3.2452
12.5270,1007,3.2484
12.5313,74,0.2387
12.5357,0,0.0000
12.5401,231,0.7452
12.5445,1004,3.2387
12.5489,1006,3.2452
12.5533,0,0.0000
12.5576,0,0.0000
12.5620,1007,3.2484
12.5664,1005,3.2419
12.5707,476,1.5355
12.5750,0,0.0000
12.5794,0,0.0000
12.5838,1005,3.2419
12.5882,1006,3.2452
12.5926,0,0.0000
12.5970,0,0.0000
12.6014,986,3.1806
12.6058,1006,3.2452
12.6102,720,2.3226
12.6145,0,0.0000
12.6189,0,0.0000
12.6233,1008,3.2516
12.6277,1004,3.2387
12.6321,0,0.0000
12.6365,0,0.0000
12.6408,607,1.9581
12.6452,1006,3.2452
12.6497,914,2.9484
12.6541,0,0.0000
12.6585,0,0.0000
12.6629,1005,3.2419
12.6672,1005,3.2419
12.6716,0,0.0000
12.6759,0,0.0000
12.6803,316,1.0194
12.6847,1005,3.2419
12.6891,1004,3.2387
12.6935,0,0.0000
12.6978,0,0.0000
12.7022,1004,3.2387
12.7066,1005,3.2419
12.7110,186,0.6000
12.7154,0,0.0000
12.7198,95,0.3065
12.7242,1005,3.2419
12.7286,1004,3.2387
12.7330,0,0.0000
12.7374,0,0.0000
12.7418,1004,3.2387
12.7462,1008,3.2516
12.7505,485,1.5645
12.7552,0,0.0000
12.7597,87,0.2806
12.7640,1006,3.2452
12.7684,1004,3.2387
12.7727,0,0.0000
12.7771,0,0.0000
12.7815,1004,3.2387
12.7859,1005,3.2419
12.7902,694,2.2387
12.7946,0,0.0000
12.7990,0,0.0000
12.8034,1006,3.2452
12.8078,1006,3.2452
12.8122,0,0.0000
12.8167,0,0.0000
12.8210,874,2.8194
12.8254,1005,3.2419
12.8298,855,2.7581
12.8342,0,0.0000
12.8386,0,0.0000
12.8430,1006,3.2452
12.8473,1004,3.2387
12.8517,0,0.0000
12.8561,0,0.0000
12.8604,445,1.4355
12.8648,1005,3.2419
12.8691,1001,3.2290
12.8734,0,0.0000
12.8778,0,0.0000
12.8821,1006,3.2452
12.8864,1007,3.2484
12.8908,257,0.8290
12.8951,0,0.0000
12.8995,2,0.0065
12.9038,1005,3.2419
12.9082,1006,3.2452
12.9125,0,0.0000
12.9169,0,0.0000
12.9212,983,3.1710
12.9256,1006,3.2452
12.9299,747,2.4097
12.9343,0,0.0000
12.9386,0,0.0000
12.9430,1006,3.2452
12.9473,1004,3.2387
12.9517,0,0.0000
12.9560,0,0.0000
12.9604,468,1.5097
12.9647,1004,3.2387
12.9690,1004,3.2387
12.9734,0,0.0000
12.9777,0,0.0000
12.9821,1006,3.2452
12.9864,1005,3.2419
12.9907,292,0.9419
12.9951,0,0.0000
12.9994,39,0.1258
13.0039,1005,3.2419
13.0082,1007,3.2484
13.0125,0,0.0000
13.0169,0,0.0000
13.0212,1005,3.2419
13.0256,1004,3.2387
13.0300,725,2.3387
13.0343,0,0.0000
13.0387,0,0.0000
13.0430,1006,3.2452
13.0473,1006,3.2452
13.0517,0,0.0000
13.0560,0,0.0000
13.0604,500,1.6129
13.0647,1008,3.2516
13.0690,1003,3.2355
13.0733,0,0.0000
13.0776,0,0.0000
13.0819,1004,3.2387
13.0862,1007,3.2484
13.0904,440,1.4194
13.0947,0,0.0000
13.0990,0,0.0000
13.1033,1007,3.2484
13.1076,1007,3.2484
13.1118,0,0.0000
13.1161,0,0.0000
13.1203,481,1.5516
13.1246,1007,3.2484
13.1288,1002,3.2323
13.1331,0,0.0000
13.1373,0,0.0000
13.1415,1004,3.2387
13.1457,1006,3.2452
13.1512,0,0.0000
13.1555,0,0.0000
13.1598,202,0.6516
13.1643,1004,3.2387
13.1685,1005,3.2419
13.1728,0,0.0000
13.1770,0,0.0000
13.1812,1002,3.2323
13.1855,1006,3.2452
13.1898,752,2.4258
13.1941,0,0.0000
13.1985,0,0.0000
13.2028,1006,3.2452
13.2071,1007,3.2484
13.2114,0,0.0000
13.2157,0,0.0000
13.2200,324,1.0452
13.2242,1004,3.2387
13.2284,1006,3.2452
13.2326,0,0.0000
13.2369,0,0.0000
13.2411,1006,3.2452
13.2454,1007,3.2484
13.2498,760,2.4516
13.2541,0,0.0000
13.2584,0,0.0000
13.2627,1005,3.2419
13.2670,1005,3.2419
13.2713,0,0.0000
13.2756,0,0.0000
13.2799,305,0.9839
13.2842,1007,3.2484
13.2885,1004,3.2387
13.2928,0,0.0000
13.2971,0,0.0000
13.3014,1006,3.2452
13.3057,1007,3.2484
13.3100,631,2.0355
13.3142,0,0.0000
13.3184,0,0.0000
13.3227,1006,3.2452
13.3269,1005,3.2419
13.3312,0,0.0000
13.3354,0,0.0000
13.3396,199,0.6419
13.3438,1004,3.2387
13.3480,1006,3.2452
13.3522,0,0.0000
13.3564,0,0.0000
13.3607,756,2.4387
13.3649,1007,3.2484
13.3691,999,3.2226
13.3734,0,0.0000
13.3776,0,0.0000
13.3819,1006,3.2452
13.3861,1005,3.2419
13.3903,499,1.6097
13.3945,0,0.0000
13.3988,0,0.0000
13.4031,1004,3.2387
13.4075,1007,3.2484
13.4119,0,0.0000
13.4161,0,0.0000
13.4204,580,1.8710
13.4247,1006,3.2452
13.4290,1002,3.2323
13.4333,0,0.0000
13.4376,0,0.0000
13.4419,1005,3.2419
13.4462,1006,3.2452
13.4512,0,0.0000
13.4555,0,0.0000
13.4597,173,0.5581
13.4639,1007,3.2484
13.4681,1007,3.2484
13.4723,0,0.0000
13.4766,0,0.0000
13.4808,816,2.6323
13.4851,1004,3.2387
13.4894,875,2.8226
13.4938,0,0.0000
13.4981,0,0.0000
13.5024,1005,3.2419
13.5067,1006,3.2452
13.5110,0,0.0000
13.5154,0,0.0000
13.5197,175,0.5645
13.5240,1007,3.2484
13.5283,1004,3.2387
13.5326,0,0.0000
13.5368,0,0.0000
13.5411,982,3.1677
13.5454,1006,3.2452
13.5497,721,2.3258
13.5539,0,0.0000
13.5581,0,0.0000
13.5623,1006,3.2452
13.5665,1005,3.2419
13.5707,76,0.2452
13.5749,0,0.0000
13.5791,0,0.0000
13.5834,1007,3.2484
13.5876,1007,3.2484
13.5918,0,0.0000
13.5960,0,0.0000
13.6002,357,1.1516
13.6044,1006,3.2452
13.6086,1003,3.2355
13.6128,0,0.0000
13.6170,0,0.0000
13.6212,1003,3.2355
13.6255,1008,3.2516
13.6298,608,1.9613
13.6341,0,0.0000
13.6385,0,0.0000
13.6428,1007,3.2484
13.6471,1004,3.2387
13.6514,0,0.0000
13.6558,0,0.0000
13.6601,411,1.3258
13.6644,1007,3.2484
13.6687,1002,3.2323
13.6730,0,0.0000
13.6774,0,0.0000
13.6817,1007,3.2484
13.6861,1008,3.2516
13.6904,285,0.9194
13.6948,0,0.0000
13.6991,0,0.0000
13.7034,1007,3.2484
13.7077,1005,3.2419
13.7121,0,0.0000
13.7164,0,0.0000
13.7208,890,2.8710
13.7251,1007,3.2484
13.7295,790,2.5484
13.7338,0,0.0000
13.7381,0,0.0000
13.7424,1006,3.2452
13.7466,1005,3.2419
13.7509,0,0.0000
13.7552,0,0.0000
13.7595,76,0.2452
13.7637,1006,3.2452
13.7680,1007,3.2484
13.7723,0,0.0000
13.7766,0,0.0000
13.7808,800,2.5806
13.7851,1006,3.2452
13.7895,721,2.3258
13.7938,0,0.0000
13.7981,0,0.0000
13.8023,1005,3.2419
13.8066,1005,3.2419
13.8109,0,0.0000
13.8152,0,0.0000
13.8194,64,0.2065
13.8237,1006,3.2452
13.8280,1004,3.2387
13.8323,0,0.0000
13.8365,0,0.0000
13.8408,865,2.7903
13.8451,1005,3.2419
13.8493,790,2.5484
13.8536,0,0.0000
13.8579,0,0.0000
13.8623,1006,3.2452
13.8666,1007,3.2484
13.8709,0,0.0000
13.8751,0,0.0000
13.8794,147,0.4742
13.8838,1003,3.2355
13.8881,1004,3.2387
13.8923,0,0.0000
13.8966,0,0.0000
13.9009,1003,3.2355
13.9052,1005,3.2419
13.9095,741,2.3903
13.9138,0,0.0000
13.9181,0,0.0000
13.9224,1003,3.2355
13.9267,1005,3.2419
13.9310,0,0.0000
13.9353,0,0.0000
13.9397,330,1.0645
13.9439,1004,3.2387
13.9481,1004,3.2387
13.9523,0,0.0000
13.9566,0,0.0000
13.9608,1003,3.2355
13.9650,1006,3.2452
13.9692,865,2.7903
13.9735,0,0.0000
13.9777,0,0.0000
13.9820,1007,3.2484
13.9862,1005,3.2419
13.9904,129,0.4161
13.9946,0,0.0000
13.9989,0,0.0000
14.0031,1006,3.2452
14.0073,1006,3.2452
14.0115,0,0.0000
14.0157,0,0.0000
14.0199,409,1.3194
14.0242,1004,3.2387
14.0284,1003,3.2355
14.0326,0,0.0000
14.0369,0,0.0000
14.0411,1005,3.2419
14.0454,1006,3.2452
14.0497,533,1.7194
14.0540,0,0.0000
14.0583,0,0.0000
14.0625,1007,3.2484
14.0667,1006,3.2452
14.0709,0,0.0000
14.0752,0,0.0000
14.0794,162,0.5226
14.0837,1004,3.2387
14.0879,1004,3.2387
14.0921,0,0.0000
14.0963,0,0.0000
14.1006,855,2.7581
14.1048,1007,3.2484
14.1090,891,2.8742
14.1132,0,0.0000
14.1175,0,0.0000
14.1217,1005,3.2419
14.1259,1004,3.2387
14.1301,284,0.9161
14.1343,0,0.0000
14.1386,0,0.0000
14.1429,1006,3.2452
14.1471,1006,3.2452
14.1513,0,0.0000
14.1555,0,0.0000
14.1598,393,1.2677
14.1640,1006,3.2452
14.1681,1004,3.2387
14.1723,0,0.0000
14.1765,0,0.0000
14.1808,1004,3.2387
14.1850,1006,3.2452
14.1892,857,2.7645
14.1934,0,0.0000
14.1976,0,0.0000
14.2018,1006,3.2452
14.2060,1004,3.2387
14.2102,293,0.9452
14.2144,0,0.0000
14.2186,0,0.0000
14.2229,1005,3.2419
14.2271,1005,3.2419
14.2313,0,0.0000
14.2355,0,0.0000
14.2398,408,1.3161
14.2440,1006,3.2452
14.2482,1003,3.2355
14.2524,0,0.0000
14.2566,0,0.0000
14.2608,1002,3.2323
14.2650,1005,3.2419
14.2693,742,2.3935
14.2735,0,0.0000
14.2777,0,0.0000
14.2820,1006,3.2452
14.2862,1006,3.2452
14.2904,3,0.0097
14.2946,0,0.0000
14.2988,0,0.0000
14.3031,1006,3.2452
14.3073,1007,3.2484
14.3115,0,0.0000
14.3157,0,0.0000
14.3199,451,1.4548
14.3242,1007,3.2484
14.3284,1002,3.2323
14.3326,0,0.0000
14.3368,0,0.0000
14.3410,1005,3.2419
14.3453,1008,3.2516
14.3496,452,1.4581
14.3539,0,0.0000
14.3582,0,0.0000
14.3625,1004,3.2387
14.3667,1003,3.2355
14.3709,0,0.0000
14.3752,0,0.0000
14.3794,234,0.7548
14.3837,1004,3.2387
14.3879,1006,3.2452
14.3921,0,0.0000
14.3963,0,0.0000
14.4005,902,2.9097
14.4048,1007,3.2484
14.4092,729,2.3516
14.4135,0,0.0000
14.4179,0,0.0000
14.4223,1006,3.2452
14.4266,1007,3.2484
14.4309,0,0.0000
14.4352,0,0.0000
14.4395,295,0.9516
14.4438,1007,3.2484
14.4481,1003,3.2355
14.4525,0,0.0000
14.4569,0,0.0000
14.4612,1006,3.2452
14.4656,1006,3.2452
14.4699,317,1.0226
14.4741,0,0.0000
14.4784,0,0.0000
14.4827,1005,3.2419
14.4870,1005,3.2419
14.4914,0,0.0000
14.4957,0,0.0000
14.5000,628,2.0258
14.5043,1007,3.2484
14.5085,990,3.1935
14.5128,0,0.0000
14.5170,0,0.0000
14.5214,1006,3.2452
14.5256,1006,3.2452
14.5299,290,0.9355
14.5342,0,0.0000
14.5384,0,0.0000
14.5427,1007,3.2484
14.5470,1007,3.2484
14.5512,0,0.0000
14.5555,0,0.0000
14.5597,482,1.5548
14.5639,1004,3.2387
14.5681,1005,3.2419
14.5723,0,0.0000
14.5766,0,0.0000
14.5808,1006,3.2452
14.5850,1005,3.2419
14.5892,706,2.2774
14.5934,0,0.0000
14.5976,0,0.0000
14.6019,1004,3.2387
14.6061,1007,3.2484
14.6103,4,0.0129
14.6146,0,0.0000
14.6189,137,0.4419
14.6232,1007,3.2484
14.6275,1006,3.2452
14.6318,0,0.0000
14.6361,0,0.0000
14.6404,985,3.1774
14.6446,1005,3.2419
14.6489,814,2.6258
14.6533,0,0.0000
14.6576,0,0.0000
14.6618,1006,3.2452
14.6660,1006,3.2452
14.6703,0,0.0000
14.6746,0,0.0000
14.6789,91,0.2935
14.6831,1006,3.2452
14.6874,1004,3.2387
14.6916,0,0.0000
14.6958,0,0.0000
14.7001,739,2.3839
14.7043,1005,3.2419
14.7085,976,3.1484
14.7127,0,0.0000
14.7169,0,0.0000
14.7211,1007,3.2484
14.7254,1007,3.2484
14.7296,386,1.2452
14.7339,0,0.0000
14.7381,0,0.0000
14.7424,1007,3.2484
14.7466,1004,3.2387
14.7509,0,0.0000
14.7552,0,0.0000
14.7594,417,1.3452
14.7636,1005,3.2419
14.7678,1006,3.2452
14.7721,0,0.0000
14.7763,0,0.0000
14.7805,1005,3.2419
14.7847,1005,3.2419
14.7890,782,2.5226
14.7932,0,0.0000
14.7975,0,0.0000
14.8018,1004,3.2387
14.8060,1004,3.2387
14.8103,0,0.0000
14.8145,0,0.0000
14.8187,135,0.4355
14.8230,1006,3.2452
14.8272,1005,3.2419
14.8314,0,0.0000
14.8357,0,0.0000
14.8399,809,2.6097
14.8442,1007,3.2484
14.8485,982,3.1677
14.8528,0,0.0000
14.8571,0,0.0000
14.8615,1007,3.2484
14.8658,1005,3.2419
14.8701,56,0.1806
14.8744,0,0.0000
14.8788,114,0.3677
14.8832,1007,3.2484
14.8875,1004,3.2387
14.8919,0,0.0000
14.8961,0,0.0000
14.9004,1002,3.2323
14.9048,1006,3.2452
14.9091,590,1.9032
14.9134,0,0.0000
14.9177,0,0.0000
14.9221,1007,3.2484
14.9264,1005,3.2419
14.9307,0,0.0000
14.9350,0,0.0000
14.9393,383,1.2355
14.9436,1005,3.2419
14.9479,1005,3.2419
14.9522,0,0.0000
14.9601,868,2.8000
14.9644,1006,3.2452
14.9686,852,2.7484
14.9730,0,0.0000
14.9773,0,0.0000
14.9817,1008,3.2516
14.9861,1006,3.2452
14.9906,0,0.0000
14.9949,0,0.0000
14.9993,441,1.4226
15.0039,1005,3.2419
15.0083,970,3.1290
15.0128,0,0.0000
15.0172,0,0.0000
15.0217,1004,3.2387
15.0262,1006,3.2452
15.0308,0,0.0000
15.0352,0,0.0000
15.0397,742,2.3935
15.0442,1005,3.2419
15.0487,807,2.6032
15.0531,0,0.0000
15.0575,0,0.0000
15.0619,1007,3.2484
15.0663,1007,3.2484
15.0707,0,0.0000
15.0751,0,0.0000
15.0794,553,1.7839
15.0838,1005,3.2419
15.0882,998,3.2194
15.0925,0,0.0000
15.0969,0,0.0000
15.1013,1005,3.2419
15.1056,1004,3.2387
15.1100,0,0.0000
15.1144,0,0.0000
15.1188,188,0.6065
15.1232,1007,3.2484
15.1275,1005,3.2419
15.1319,0,0.0000
15.1363,0,0.0000
15.1406,1007,3.2484
15.1450,1007,3.2484
15.1493,344,1.1097
15.1537,0,0.0000
15.1581,0,0.0000
15.1625,1006,3.2452
15.1669,1007,3.2484
15.1712,0,0.0000
15.1756,0,0.0000
15.1800,1002,3.2323
15.1844,1005,3.2419
15.1887,677,2.1839
15.1931,0,0.0000
15.1975,0,0.0000
15.2019,1004,3.2387
15.2062,1007,3.2484
15.2106,0,0.0000
15.2150,0,0.0000
15.2194,646,2.0839
15.2238,1006,3.2452
15.2281,960,3.0968
15.2324,0,0.0000
15.2368,0,0.0000
15.2412,1006,3.2452
15.2455,1007,3.2484
15.2499,0,0.0000
15.2543,0,0.0000
15.2587,299,0.9645
15.2631,1006,3.2452
15.2675,1005,3.2419
15.2718,0,0.0000
15.2762,0,0.0000
15.2805,1006,3.2452
15.2849,1006,3.2452
15.2892,385,1.2419
15.2936,0,0.0000
15.2980,1,0.0032
15.3024,1007,3.2484
15.3068,1007,3.2484
15.3111,0,0.0000
15.3155,0,0.0000
15.3199,1005,3.2419
15.3243,1004,3.2387
15.3287,714,2.3032
15.3330,0,0.0000
15.3375,0,0.0000
15.3418,1006,3.2452
15.3462,1004,3.2387
15.3505,0,0.0000
15.3549,0,0.0000
15.3594,761,2.4548
15.3639,1005,3.2419
15.3683,882,2.8452
15.3726,0,0.0000
15.3770,0,0.0000
15.3814,1004,3.2387
15.3858,1007,3.2484
15.3902,0,0.0000
15.3946,0,0.0000
15.3990,522,1.6839
15.4034,1005,3.2419
15.4077,1001,3.2290
15.4121,0,0.0000
15.4165,0,0.0000
15.4209,1006,3.2452
15.4253,1006,3.2452
15.4297,47,0.1516
15.4340,0,0.0000
15.4384,233,0.7516
15.4428,1005,3.2419
15.4471,1006,3.2452
15.4515,0,0.0000
15.4559,0,0.0000
15.4603,1004,3.2387
15.4647,1007,3.2484
15.4690,435,1.4032
15.4734,0,0.0000
15.4778,0,0.0000
15.4822,1006,3.2452
15.4866,1005,3.2419
15.4909,0,0.0000
15.4953,0,0.0000
15.4997,1002,3.2323
15.5041,1007,3.2484
15.5085,709,2.2871
15.5129,0,0.0000
15.5172,0,0.0000
15.5216,1006,3.2452
15.5260,1003,3.2355
15.5303,0,0.0000
15.5347,0,0.0000
15.5390,602,1.9419
15.5434,1005,3.2419
15.5478,999,3.2226
15.5521,0,0.0000
15.5566,0,0.0000
15.5610,1006,3.2452
15.5654,1006,3.2452
15.5698,0,0.0000
15.5741,0,0.0000
15.5785,314,1.0129
15.5829,1007,3.2484
15.5873,1005,3.2419
15.5917,0,0.0000
15.5961,0,0.0000
15.6005,1006,3.2452
15.6048,1007,3.2484
15.6092,303,0.9774
15.6135,0,0.0000
15.6179,49,0.1581
15.6223,1007,3.2484
15.6266,1007,3.2484
15.6309,0,0.0000
15.6353,0,0.0000
15.6396,1000,3.2258
15.6439,1007,3.2484
15.6483,806,2.6000
15.6526,0,0.0000
15.6570,0,0.0000
15.6613,1007,3.2484
15.6657,1007,3.2484
15.6700,0,0.0000
15.6744,0,0.0000
15.6787,463,1.4935
15.6831,1006,3.2452
15.6874,1002,3.2323
15.6918,0,0.0000
15.6961,0,0.0000
15.7004,1007,3.2484
15.7048,1006,3.2452
15.7092,262,0.8452
15.7135,0,0.0000
15.7178,38,0.1226
15.7222,1004,3.2387
15.7265,1006,3.2452
15.7308,0,0.0000
15.7352,0,0.0000
15.7395,985,3.1774
15.7439,1007,3.2484
15.7482,786,2.5355
15.7526,0,0.0000
15.7570,0,0.0000
15.7613,1007,3.2484
15.7656,1006,3.2452
15.7700,0,0.0000
15.7743,0,0.0000
15.7786,438,1.4129
15.7830,1004,3.2387
15.7873,1005,3.2419
15.7917,0,0.0000
15.7960,0,0.0000
15.8003,1006,3.2452
15.8046,1004,3.2387
15.8090,342,1.1032
15.8133,0,0.0000
15.8177,1,0.0032
15.8220,1005,3.2419
15.8264,1007,3.2484
15.8307,0,0.0000
15.8350,0,0.0000
15.8394,949,3.0613
15.8438,1005,3.2419
15.8481,821,2.6484
15.8532,0,0.0000
15.8575,0,0.0000
15.8618,1007,3.2484
15.8661,1007,3.2484
15.8704,0,0.0000
15.8747,0,0.0000
15.8789,641,2.0677
15.8832,1004,3.2387
15.8875,1000,3.2258
15.8918,0,0.0000
15.8961,0,0.0000
15.9003,1007,3.2484
15.9046,1007,3.2484
15.9089,385,1.2419
15.9132,0,0.0000
15.9175,0,0.0000
15.9218,1005,3.2419
15.9262,1006,3.2452
15.9306,0,0.0000
15.9349,0,0.0000
15.9392,815,2.6290
15.9434,1006,3.2452
15.9477,962,3.1032
15.9520,0,0.0000
15.9564,0,0.0000
15.9607,1004,3.2387
15.9650,1007,3.2484
15.9693,128,0.4129
15.9736,0,0.0000
15.9779,91,0.2935
15.9822,1005,3.2419
15.9864,1004,3.2387
15.9907,0,0.0000
15.9950,0,0.0000
15.9993,936,3.0194
16.0036,1006,3.2452
16.0079,891,2.8742
16.0122,0,0.0000
16.0165,0,0.0000
16.0208,1004,3.2387
16.0250,1005,3.2419
16.0293,68,0.2194
16.0335,0,0.0000
16.0378,71,0.2290
16.0420,1006,3.2452
16.0462,1007,3.2484
16.0505,0,0.0000
16.0547,0,0.0000
16.0589,659,2.1258
16.0631,1006,3.2452
16.0673,1003,3.2355
16.0716,0,0.0000
16.0758,0,0.0000
16.0800,1007,3.2484
16.0843,1006,3.2452
16.0885,572,1.8452
16.0927,0,0.0000
16.0970,0,0.0000
16.1012,1005,3.2419
16.1055,1007,3.2484
16.1097,0,0.0000
16.1140,0,0.0000
16.1182,286,0.9226
16.1224,1007,3.2484
16.1266,1006,3.2452
16.1308,0,0.0000
16.1351,0,0.0000
16.1393,958,3.0903
16.1435,1006,3.2452
16.1477,940,3.0323
16.1526,0,0.0000
16.1569,0,0.0000
16.1612,1004,3.2387
16.1654,1005,3.2419
16.1696,0,0.0000
16.1739,0,0.0000
16.1781,232,0.7484
16.1823,1005,3.2419
16.1865,1006,3.2452
16.1907,0,0.0000
16.1950,0,0.0000
16.1992,947,3.0548
16.2035,1006,3.2452
16.2077,931,3.0032
16.2119,0,0.0000
16.2161,0,0.0000
16.2203,1006,3.2452
16.2245,1006,3.2452
16.2287,391,1.2613
16.2329,0,0.0000
16.2372,0,0.0000
16.2414,1004,3.2387
16.2456,1006,3.2452
16.2498,0,0.0000
16.2541,0,0.0000
16.2583,392,1.2645
16.2625,1006,3.2452
16.2668,1002,3.2323
16.2710,0,0.0000
16.2752,0,0.0000
16.2795,1003,3.2355
16.2837,1005,3.2419
16.2880,816,2.6323
16.2922,0,0.0000
16.2964,0,0.0000
16.3006,1005,3.2419
16.3049,1005,3.2419
16.3090,180,0.5806
16.3133,0,0.0000
16.3175,14,0.0452
16.3217,1008,3.2516
16.3259,1005,3.2419
16.3300,0,0.0000
16.3343,0,0.0000
16.3385,553,1.7839
16.3427,1007,3.2484
16.3469,1002,3.2323
16.3511,0,0.0000
16.3554,0,0.0000
16.3596,1003,3.2355
16.3639,1007,3.2484
16.3681,746,2.4065
16.3723,0,0.0000
16.3766,0,0.0000
16.3808,1006,3.2452
16.3851,1006,3.2452
16.3893,1,0.0032
16.3935,0,0.0000
16.3978,26,0.0839
16.4020,1004,3.2387
16.4064,1005,3.2419
16.4107,0,0.0000
16.4151,0,0.0000
16.4193,824,2.6581
16.4237,1007,3.2484
16.4281,691,2.2290
16.4324,0,0.0000
16.4367,0,0.0000
16.4410,1004,3.2387
16.4453,1007,3.2484
16.4495,0,0.0000
16.4539,0,0.0000
16.4581,103,0.3323
16.4624,1006,3.2452
16.4666,1006,3.2452
16.4708,0,0.0000
16.4750,0,0.0000
16.4792,689,2.2226
16.4834,1005,3.2419
16.4876,887,2.8613
16.4918,0,0.0000
16.4960,0,0.0000
16.5003,1007,3.2484
16.5045,1004,3.2387
16.5088,236,0.7613
16.5131,0,0.0000
16.5174,0,0.0000
16.5217,1005,3.2419
16.5260,1006,3.2452
16.5303,0,0.0000
16.5346,0,0.0000
16.5389,585,1.8871
16.5432,1004,3.2387
16.5476,925,2.9839
16.5518,0,0.0000
16.5561,0,0.0000
16.5604,1006,3.2452
16.5648,1007,3.2484
16.5691,86,0.2774
16.5734,0,0.0000
16.5778,104,0.3355
16.5822,1007,3.2484
16.5865,1006,3.2452
16.5908,0,0.0000
16.5951,0,0.0000
16.5994,1003,3.2355
16.6038,1006,3.2452
16.6081,718,2.3161
16.6124,0,0.0000
16.6167,0,0.0000
16.6209,1006,3.2452
16.6253,1007,3.2484
16.6296,0,0.0000
16.6339,0,0.0000
16.6382,315,1.0161
16.6425,1006,3.2452
16.6468,1005,3.2419
16.6511,0,0.0000
16.6554,0,0.0000
16.6597,1004,3.2387
16.6640,1006,3.2452
16.6682,613,1.9774
16.6725,0,0.0000
16.6768,0,0.0000
16.6811,1004,3.2387
16.6853,1005,3.2419
16.6896,0,0.0000
16.6939,0,0.0000
16.6983,373,1.2032
16.7027,1008,3.2516
16.7070,1004,3.2387
16.7112,0,0.0000
16.7155,0,0.0000
16.7198,1005,3.2419
16.7240,1006,3.2452
16.7283,491,1.5839
16.7326,0,0.0000
16.7368,0,0.0000
16.7411,1006,3.2452
16.7454,1007,3.2484
16.7497,0,0.0000
16.7540,0,0.0000
16.7583,321,1.0355
16.7626,1005,3.2419
16.7669,1003,3.2355
16.7713,0,0.0000
16.7758,0,0.0000
16.7801,1007,3.2484
16.7844,1006,3.2452
16.7887,193,0.6226
16.7931,0,0.0000
16.7974,0,0.0000
16.8017,1006,3.2452
16.8060,1007,3.2484
16.8103,0,0.0000
16.8146,0,0.0000
16.8189,747,2.4097
16.8232,1006,3.2452
16.8275,906,2.9226
16.8318,0,0.0000
16.8361,0,0.0000
16.8404,1007,3.2484
16.8447,1006,3.2452
16.8490,45,0.1452
16.8534,0,0.0000
16.8577,120,0.3871
16.8620,1004,3.2387
16.8662,1004,3.2387
16.8705,0,0.0000
16.8748,0,0.0000
16.8792,994,3.2065
16.8835,1006,3.2452
16.8877,846,2.7290
16.8919,0,0.0000
16.8962,0,0.0000
16.9005,1007,3.2484
16.9048,1007,3.2484
16.9091,0,0.0000
16.9133,0,0.0000
16.9175,57,0.1839
16.9217,1006,3.2452
16.9259,1006,3.2452
16.9301,0,0.0000
16.9344,0,0.0000
16.9386,562,1.8129
16.9428,1005,3.2419
16.9470,1003,3.2355
16.9512,0,0.0000
16.9555,0,0.0000
16.9597,1004,3.2387
16.9640,1004,3.2387
16.9683,445,1.4355
16.9726,0,0.0000
16.9768,0,0.0000
16.9811,1005,3.2419
16.9853,1006,3.2452
16.9895,0,0.0000
16.9938,0,0.0000
16.9980,226,0.7290
17.0022,1006,3.2452
17.0064,1004,3.2387
17.0107,0,0.0000
17.0149,0,0.0000
17.0191,913,2.9452
17.0233,1004,3.2387
17.0275,846,2.7290
17.0317,0,0.0000
17.0360,0,0.0000
17.0402,1007,3.2484
17.0444,1006,3.2452
17.0486,204,0.6581
17.0530,0,0.0000
17.0573,0,0.0000
17.0616,1005,3.2419
17.0658,1007,3.2484
17.0700,0,0.0000
17.0742,0,0.0000
17.0785,516,1.6645
17.0827,1005,3.2419
17.0869,1002,3.2323
17.0911,0,0.0000
17.0953,0,0.0000
17.0995,1005,3.2419
17.1038,1005,3.2419
17.1080,638,2.0581
17.1123,0,0.0000
17.1165,0,0.0000
17.1207,1007,3.2484
17.1249,1007,3.2484
17.1291,0,0.0000
17.1333,0,0.0000
17.1375,113,0.3645
17.1418,1004,3.2387
17.1460,1007,3.2484
17.1502,0,0.0000
17.1544,0,0.0000
17.1587,724,2.3355
17.1629,1006,3.2452
17.1671,990,3.1935
17.1714,0,0.0000
17.1756,0,0.0000
17.1799,1005,3.2419
17.1841,1007,3.2484
17.1884,348,1.1226
17.1926,0,0.0000
17.1969,0,0.0000
17.2011,1003,3.2355
17.2053,1004,3.2387
17.2095,0,0.0000
17.2138,0,0.0000
17.2181,333,1.0742
17.2223,1006,3.2452
17.2265,1005,3.2419
17.2307,0,0.0000
17.2350,0,0.0000
17.2392,1003,3.2355
17.2435,1007,3.2484
17.2477,702,2.2645
17.2518,0,0.0000
17.2561,0,0.0000
17.2603,1007,3.2484
17.2646,1006,3.2452
17.2688,0,0.0000
17.2730,0,0.0000
17.2772,0,0.0000
17.2814,1007,3.2484
17.2857,1005,3.2419
17.2899,0,0.0000
17.2941,0,0.0000
17.2983,387,1.2484
17.3025,1003,3.2355
17.3067,998,3.2194
17.3110,0,0.0000
17.3152,0,0.0000
17.3194,1006,3.2452
17.3237,1004,3.2387
17.3279,538,1.7355
17.3321,0,0.0000
17.3364,0,0.0000
17.3406,1006,3.2452
17.3449,1005,3.2419
17.3491,0,0.0000
17.3533,0,0.0000
17.3575,89,0.2871
17.3618,1007,3.2484
17.3660,1003,3.2355
17.3704,0,0.0000
17.3747,0,0.0000
17.3790,972,3.1355
17.3833,1003,3.2355
17.3876,795,2.5645
17.3918,0,0.0000
17.3960,0,0.0000
17.4002,1006,3.2452
17.4045,1006,3.2452
17.4087,107,0.3452
17.4130,0,0.0000
17.4173,73,0.2355
17.4216,1004,3.2387
17.4259,1004,3.2387
17.4303,0,0.0000
17.4346,0,0.0000
17.4391,1003,3.2355
17.4434,1007,3.2484
17.4478,669,2.1581
17.4521,0,0.0000
17.4564,0,0.0000
17.4607,1007,3.2484
17.4649,1007,3.2484
17.4692,0,0.0000
17.4735,0,0.0000
17.4777,249,0.8032
17.4820,1003,3.2355
17.4863,1004,3.2387
17.4906,0,0.0000
17.4948,0,0.0000
17.4991,1004,3.2387
17.5034,1005,3.2419
17.5077,659,2.1258
17.5120,0,0.0000
17.5162,0,0.0000
17.5204,1005,3.2419
17.5247,1004,3.2387
17.5289,0,0.0000
17.5331,0,0.0000
17.5373,129,0.4161
17.5415,1006,3.2452
17.5458,1005,3.2419
17.5500,0,0.0000
17.5542,0,0.0000
17.5584,769,2.4806
17.5626,1005,3.2419
17.5669,974,3.1419
17.5712,0,0.0000
17.5754,0,0.0000
17.5796,1007,3.2484
17.5838,1007,3.2484
17.5881,381,1.2290
17.5923,0,0.0000
17.5965,0,0.0000
17.6008,1004,3.2387
17.6050,1007,3.2484
17.6093,0,0.0000
17.6135,0,0.0000
17.6177,395,1.2742
17.6219,1006,3.2452
17.6261,1004,3.2387
17.6304,0,0.0000
17.6346,0,0.0000
17.6389,1005,3.2419
17.6432,1008,3.2516
17.6475,691,2.2290
17.6519,0,0.0000
17.6562,0,0.0000
17.6606,1006,3.2452
17.6649,1006,3.2452
17.6692,0,0.0000
17.6735,0,0.0000
17.6778,452,1.4581
17.6820,1007,3.2484
17.6863,1005,3.2419
17.6906,0,0.0000
17.6948,0,0.0000
17.6990,1006,3.2452
17.7032,1006,3.2452
17.7075,717,2.3129
17.7117,0,0.0000
17.7160,0,0.0000
17.7202,1007,3.2484
17.7244,1004,3.2387
17.7286,1,0.0032
17.7329,0,0.0000
17.7371,134,0.4323
17.7414,1003,3.2355
17.7457,1007,3.2484
17.7500,0,0.0000
17.7544,0,0.0000
17.7588,1005,3.2419
17.7631,1005,3.2419
17.7674,708,2.2839
17.7717,0,0.0000
17.7760,0,0.0000
17.7803,1006,3.2452
17.7846,1006,3.2452
17.7888,0,0.0000
17.7931,0,0.0000
17.7974,271,0.8742
17.8017,1005,3.2419
17.8059,1006,3.2452
17.8101,0,0.0000
17.8144,0,0.0000
17.8186,984,3.1742
17.8228,1004,3.2387
17.8271,859,2.7710
17.8313,0,0.0000
17.8355,0,0.0000
17.8397,1006,3.2452
17.8439,1007,3.2484
17.8481,233,0.7516
17.8524,0,0.0000
17.8566,0,0.0000
17.8608,1006,3.2452
17.8651,1007,3.2484
17.8693,0,0.0000
17.8736,0,0.0000
17.8779,524,1.6903
17.8822,1003,3.2355
17.8865,1003,3.2355
17.8907,0,0.0000
17.8950,0,0.0000
17.8992,1006,3.2452
17.9035,1006,3.2452
17.9077,492,1.5871
17.9120,0,0.0000
17.9163,0,0.0000
17.9206,1005,3.2419
17.9248,1006,3.2452
17.9291,0,0.0000
17.9334,0,0.0000
17.9377,461,1.4871
17.9420,1007,3.2484
17.9463,1005,3.2419
17.9507,0,0.0000
17.9550,0,0.0000
17.9593,1004,3.2387
17.9635,1004,3.2387
17.9678,434,1.4000
17.9722,0,0.0000
17.9765,0,0.0000
17.9808,1006,3.2452
17.9851,1007,3.2484
17.9893,0,0.0000
17.9936,0,0.0000
17.9979,615,1.9839
18.0021,1007,3.2484
18.0064,1001,3.2290
18.0106,0,0.0000
18.0149,0,0.0000
18.0192,1005,3.2419
18.0235,1006,3.2452
18.0278,440,1.4194
18.0321,0,0.0000
18.0364,0,0.0000
18.0406,1005,3.2419
18.0449,1005,3.2419
18.0491,0,0.0000
18.0534,0,0.0000
18.0577,477,1.5387
18.0619,1007,3.2484
18.0662,1004,3.2387
18.0705,0,0.0000
18.0747,0,0.0000
18.0790,1006,3.2452
18.0833,1007,3.2484
18.0876,549,1.7710
18.0918,0,0.0000
18.0961,0,0.0000
18.1003,1006,3.2452
18.1046,1005,3.2419
18.1088,0,0.0000
18.1130,0,0.0000
18.1173,259,0.8355
18.1215,1004,3.2387
18.1257,1005,3.2419
18.1299,0,0.0000
18.1341,0,0.0000
18.1384,937,3.0226
18.1426,1004,3.2387
18.1469,893,2.8806
18.1511,0,0.0000
18.1553,0,0.0000
18.1595,1004,3.2387
18.1638,1006,3.2452
18.1681,120,0.3871
18.1724,0,0.0000
18.1767,12,0.0387
18.1810,1005,3.2419
18.1852,1004,3.2387
18.1895,0,0.0000
18.1939,0,0.0000
18.1982,841,2.7129
18.2025,1007,3.2484
18.2068,878,2.8323
18.2111,0,0.0000
18.2154,0,0.0000
18.2197,1005,3.2419
18.2240,1007,3.2484
18.2283,52,0.1677
18.2326,0,0.0000
18.2370,174,0.5613
18.2413,1007,3.2484
18.2456,1007,3.2484
18.2498,0,0.0000
18.2540,0,0.0000
18.2583,935,3.0161
18.2625,1005,3.2419
18.2668,887,2.8613
18.2711,0,0.0000
18.2754,0,0.0000
18.2797,1007,3.2484
18.2840,1006,3.2452
18.2882,107,0.3452
18.2924,0,0.0000
18.2966,13,0.0419
18.3008,1004,3.2387
18.3050,1006,3.2452
18.3092,0,0.0000
18.3134,0,0.0000
18.3176,550,1.7742
18.3219,1007,3.2484
18.3261,1004,3.2387
18.3304,0,0.0000
18.3346,0,0.0000
18.3388,1006,3.2452
18.3431,1006,3.2452
18.3474,624,2.0129
18.3517,0,0.0000
18.3560,0,0.0000
18.3604,1006,3.2452
18.3647,1007,3.2484
18.3690,0,0.0000
18.3734,0,0.0000
18.3779,775,2.5000
18.3825,1007,3.2484
18.3870,797,2.5710
18.3914,0,0.0000
18.3959,0,0.0000
18.4003,1007,3.2484
18.4047,1005,3.2419
18.4091,0,0.0000
18.4135,0,0.0000
18.4179,745,2.4032
18.4223,1007,3.2484
18.4267,893,2.8806
18.4312,0,0.0000
18.4357,0,0.0000
18.4401,1007,3.2484
18.4445,1004,3.2387
18.4490,0,0.0000
18.4534,0,0.0000
18.4578,664,2.1419
18.4622,1007,3.2484
18.4665,951,3.0677
18.4709,0,0.0000
18.4753,0,0.0000
18.4797,1004,3.2387
18.4841,1007,3.2484
18.4884,0,0.0000
18.4928,0,0.0000
18.4972,322,1.0387
18.5016,1005,3.2419
18.5060,1004,3.2387
18.5104,0,0.0000
18.5147,0,0.0000
18.5191,1004,3.2387
18.5235,1006,3.2452
18.5278,282,0.9097
18.5321,0,0.0000
18.5365,26,0.0839
18.5409,1006,3.2452
18.5453,1005,3.2419
18.5496,0,0.0000
18.5547,0,0.0000
18.5591,1006,3.2452
18.5634,1007,3.2484
18.5678,262,0.8452
18.5728,0,0.0000
18.5771,296,0.9548
18.5815,1004,3.2387
18.5859,1007,3.2484
18.5902,0,0.0000
18.5946,0,0.0000
18.5990,1005,3.2419
18.6033,1006,3.2452
18.6077,293,0.9452
18.6121,0,0.0000
18.6164,0,0.0000
18.6208,1007,3.2484
18.6252,1004,3.2387
18.6296,0,0.0000
18.6340,0,0.0000
18.6384,1004,3.2387
18.6427,1007,3.2484
18.6471,652,2.1032
18.6514,0,0.0000
18.6558,0,0.0000
18.6601,1007,3.2484
18.6645,1005,3.2419
18.6688,0,0.0000
18.6732,0,0.0000
18.6776,573,1.8484
18.6819,1005,3.2419
18.6863,996,3.2129
18.6907,0,0.0000
18.6951,0,0.0000
18.6994,1007,3.2484
18.7038,1005,3.2419
18.7082,0,0.0000
18.7126,0,0.0000
18.7170,268,0.8645
18.7214,1006,3.2452
18.7257,1004,3.2387
18.7301,0,0.0000
18.7344,0,0.0000
18.7388,1004,3.2387
18.7431,1008,3.2516
18.7476,372,1.2000
18.7520,0,0.0000
18.7564,20,0.0645
18.7608,1006,3.2452
18.7652,1005,3.2419
18.7696,0,0.0000
18.7740,0,0.0000
18.7784,1005,3.2419
18.7828,1005,3.2419
18.7872,615,1.9839
18.7916,0,0.0000
18.7959,0,0.0000
18.8003,1006,3.2452
18.8046,1006,3.2452
18.8090,0,0.0000
18.8134,0,0.0000
18.8178,759,2.4484
18.8221,1006,3.2452
18.8264,962,3.1032
18.8308,0,0.0000
18.8352,0,0.0000
18.8396,1007,3.2484
18.8440,1006,3.2452
18.8484,0,0.0000
18.8528,0,0.0000
18.8589,1003,3.2355
18.8633,1005,3.2419
18.8676,340,1.0968
18.8720,0,0.0000
18.8763,0,0.0000
18.8807,1007,3.2484
18.8851,1006,3.2452
18.8895,0,0.0000
18.8939,0,0.0000
18.8983,1003,3.2355
18.9027,1003,3.2355
18.9071,601,1.9387
18.9116,0,0.0000
18.9159,0,0.0000
18.9203,1004,3.2387
18.9246,1006,3.2452
18.9290,0,0.0000
18.9334,0,0.0000
18.9379,859,2.7710
18.9422,1008,3.2516
18.9466,867,2.7968
18.9510,0,0.0000
18.9553,0,0.0000
18.9597,1003,3.2355
18.9642,1004,3.2387
18.9685,0,0.0000
18.9729,0,0.0000
18.9772,437,1.4097
18.9815,1006,3.2452
18.9859,1004,3.2387
18.9903,0,0.0000
18.9947,0,0.0000
18.9991,1007,3.2484
19.0035,1004,3.2387
19.0078,146,0.4710
19.0122,0,0.0000
19.0167,159,0.5129
19.0211,1004,3.2387
19.0255,1004,3.2387
19.0299,0,0.0000
19.0343,0,0.0000
19.0387,1007,3.2484
19.0431,1003,3.2355
19.0474,394,1.2710
19.0518,0,0.0000
19.0562,0,0.0000
19.0605,1005,3.2419
19.0649,1004,3.2387
19.0692,0,0.0000
19.0735,0,0.0000
19.0778,841,2.7129
19.0822,1004,3.2387
19.0865,850,2.7419
19.0909,0,0.0000
19.0952,0,0.0000
19.0996,1005,3.2419
19.1040,1007,3.2484
19.1083,0,0.0000
19.1127,0,0.0000
19.1170,339,1.0935
19.1214,1007,3.2484
19.1257,1003,3.2355
19.1300,0,0.0000
19.1344,0,0.0000
19.1387,1003,3.2355
19.1431,1006,3.2452
19.1474,371,1.1968
19.1517,0,0.0000
19.1561,0,0.0000
19.1604,1004,3.2387
19.1648,1006,3.2452
19.1691,0,0.0000
19.1735,0,0.0000
19.1778,837,2.7000
19.1822,1006,3.2452
19.1865,855,2.7581
19.1909,0,0.0000
19.1952,0,0.0000
19.1996,1007,3.2484
19.2040,1005,3.2419
19.2083,0,0.0000
19.2126,0,0.0000
19.2170,328,1.0581
19.2213,1001,3.2290
19.2256,1006,3.2452
19.2299,0,0.0000
19.2343,0,0.0000
19.2386,1007,3.2484
19.2430,1007,3.2484
19.2473,430,1.3871
19.2516,0,0.0000
19.2560,0,0.0000
19.2603,1007,3.2484
19.2647,1004,3.2387
19.2690,0,0.0000
19.2734,0,0.0000
19.2777,838,2.7032
19.2821,1006,3.2452
19.2864,903,2.9129
19.2907,0,0.0000
19.2951,0,0.0000
19.2994,1005,3.2419
19.3038,1007,3.2484
19.3082,0,0.0000
19.3125,0,0.0000
19.3169,335,1.0806
19.3212,1007,3.2484
19.3255,1004,3.2387
19.3299,0,0.0000
19.3343,0,0.0000
19.3386,1005,3.2419
19.3430,1005,3.2419
19.3473,493,1.5903
19.3516,0,0.0000
19.3559,0,0.0000
19.3601,1007,3.2484
19.3644,1006,3.2452
19.3686,0,0.0000
19.3729,0,0.0000
19.3771,372,1.2000
19.3814,1007,3.2484
19.3857,1005,3.2419
19.3899,0,0.0000
19.3942,0,0.0000
19.3984,1004,3.2387
19.4026,1006,3.2452
19.4068,721,2.3258
19.4110,0,0.0000
19.4152,0,0.0000
19.4195,1008,3.2516
19.4237,1005,3.2419
19.4279,54,0.1742
19.4321,0,0.0000
19.4363,0,0.0000
19.4405,1004,3.2387
19.4448,1004,3.2387
19.4490,0,0.0000
19.4545,0,0.0000
19.4588,1004,3.2387
19.4631,1007,3.2484
19.4675,299,0.9645
19.4718,0,0.0000
19.4761,0,0.0000
19.4804,1007,3.2484
19.4847,1004,3.2387
19.4890,0,0.0000
19.4933,0,0.0000
19.4976,577,1.8613
19.5019,1005,3.2419
19.5062,948,3.0581
19.5105,0,0.0000
19.5148,0,0.0000
19.5192,1007,3.2484
19.5235,1004,3.2387
19.5278,72,0.2323
19.5321,0,0.0000
19.5364,9,0.0290
19.5407,1005,3.2419
19.5450,1004,3.2387
19.5492,0,0.0000
19.5535,0,0.0000
19.5577,679,2.1903
19.5619,1004,3.2387
19.5661,998,3.2194
19.5703,0,0.0000
19.5745,0,0.0000
19.5787,1005,3.2419
19.5830,1007,3.2484
19.5872,549,1.7710
19.5914,0,0.0000
19.5956,0,0.0000
19.5998,1007,3.2484
19.6041,1005,3.2419
19.6084,0,0.0000
19.6128,0,0.0000
19.6171,373,1.2032
19.6214,1006,3.2452
19.6256,1003,3.2355
19.6299,0,0.0000
19.6341,0,0.0000
19.6384,1004,3.2387
19.6428,1005,3.2419
19.6471,542,1.7484
19.6514,0,0.0000
19.6557,0,0.0000
19.6599,1003,3.2355
19.6642,1006,3.2452
19.6684,0,0.0000
19.6727,0,0.0000
19.6769,237,0.7645
19.6811,1007,3.2484
19.6853,1007,3.2484
19.6895,0,0.0000
19.6938,0,0.0000
19.6980,928,2.9935
19.7022,1007,3.2484
19.7065,838,2.7032
19.7107,0,0.0000
19.7149,0,0.0000
19.7191,1007,3.2484
19.7233,1006,3.2452
19.7275,211,0.6806
19.7318,0,0.0000
19.7361,0,0.0000
19.7404,1007,3.2484
19.7447,1006,3.2452
19.7491,0,0.0000
19.7545,0,0.0000
19.7588,1007,3.2484
19.7630,1007,3.2484
19.7674,276,0.8903
19.7717,0,0.0000
19.7760,0,0.0000
19.7802,1007,3.2484
19.7845,1005,3.2419
19.7888,0,0.0000
19.7931,0,0.0000
19.7973,456,1.4710
19.8016,1005,3.2419
19.8058,1000,3.2258
19.8101,0,0.0000
19.8143,0,0.0000
19.8185,1005,3.2419
19.8227,1003,3.2355
19.8269,613,1.9774
19.8311,0,0.0000
19.8353,0,0.0000
19.8395,1007,3.2484
19.8438,1005,3.2419
19.8480,0,0.0000
19.8522,0,0.0000
19.8565,65,0.2097
19.8607,1005,3.2419
19.8650,1003,3.2355
19.8693,0,0.0000
19.8736,0,0.0000
19.8780,954,3.0774
19.8823,1006,3.2452
19.8866,747,2.4097
19.8909,0,0.0000
19.8952,0,0.0000
19.8995,1007,3.2484
19.9038,1004,3.2387
19.9080,0,0.0000
19.9123,0,0.0000
19.9166,124,0.4000
19.9208,1005,3.2419
19.9251,1006,3.2452
19.9294,0,0.0000
19.9336,0,0.0000
19.9379,823,2.6548
19.9421,1005,3.2419
19.9463,844,2.7226
19.9505,0,0.0000
19.9548,0,0.0000
19.9590,1006,3.2452
19.9632,1006,3.2452
19.9674,210,0.6774
19.9716,0,0.0000
19.9759,0,0.0000
19.9801,1006,3.2452
19.9843,1004,3.2387
19.9885,0,0.0000
19.9928,0,0.0000
19.9971,335,1.0806
20.0014,1007,3.2484
20.0057,1002,3.2323
20.0100,0,0.0000
20.0143,0,0.0000
20.0186,1004,3.2387
20.0230,1007,3.2484
20.0275,65,0.2097
20.0320,0,0.0000
20.0366,97,0.3129
20.0408,1007,3.2484
20.0451,1005,3.2419
20.0494,0,0.0000
20.0537,0,0.0000
20.0580,946,3.0516
20.0622,1004,3.2387
20.0665,751,2.4226
20.0708,0,0.0000
20.0750,0,0.0000
20.0793,1004,3.2387
20.0835,1007,3.2484
20.0877,17,0.0548
20.0920,0,0.0000
20.0962,33,0.1065
20.1004,1007,3.2484
20.1046,1006,3.2452
20.1088,0,0.0000
20.1130,0,0.0000
20.1172,550,1.7742
20.1214,1007,3.2484
20.1257,1004,3.2387
20.1299,0,0.0000
20.1341,0,0.0000
20.1384,1004,3.2387
20.1427,1006,3.2452
20.1470,478,1.5419
20.1513,0,0.0000
20.1556,0,0.0000
20.1599,1004,3.2387
20.1643,1006,3.2452
20.1686,0,0.0000
20.1728,0,0.0000
20.1771,498,1.6065
20.1814,1004,3.2387
20.1857,1002,3.2323
20.1900,0,0.0000
20.1943,0,0.0000
20.1986,1007,3.2484
20.2030,1007,3.2484
20.2073,281,0.9065
20.2116,0,0.0000
20.2159,0,0.0000
20.2202,1006,3.2452
20.2245,1006,3.2452
20.2288,0,0.0000
20.2331,0,0.0000
20.2374,643,2.0742
20.2417,1006,3.2452
20.2460,899,2.9000
20.2503,0,0.0000
20.2546,0,0.0000
20.2590,1007,3.2484
20.2633,1007,3.2484
20.2676,0,0.0000
20.2719,0,0.0000
20.2762,0,0.0000
20.2805,1007,3.2484
20.2848,1005,3.2419
20.2891,0,0.0000
20.2934,0,0.0000
20.2978,848,2.7355
20.3021,1004,3.2387
20.3065,683,2.2032
20.3108,0,0.0000
20.3150,0,0.0000
20.3192,1006,3.2452
20.3235,1005,3.2419
20.3278,0,0.0000
20.3320,0,0.0000
20.3363,66,0.2129
20.3405,1004,3.2387
20.3448,1005,3.2419
20.3491,0,0.0000
20.3548,0,0.0000
20.3591,1005,3.2419
20.3633,1006,3.2452
20.3676,58,0.1871
20.3718,0,0.0000
20.3761,25,0.0806
20.3803,1007,3.2484
20.3845,1005,3.2419
20.3892,0,0.0000
20.3935,0,0.0000
20.3977,951,3.0677
20.4019,1007,3.2484
20.4062,890,2.8710
20.4104,0,0.0000
20.4146,0,0.0000
20.4189,1006,3.2452
20.4232,1006,3.2452
20.4275,155,0.5000
20.4318,0,0.0000
20.4361,83,0.2677
20.4405,1006,3.2452
20.4447,1004,3.2387
20.4490,0,0.0000
20.4532,0,0.0000
20.4575,787,2.5387
20.4617,1004,3.2387
20.4660,943,3.0419
20.4702,0,0.0000
20.4745,0,0.0000
20.4788,1005,3.2419
20.4831,1006,3.2452
20.4873,192,0.6194
20.4916,0,0.0000
20.4958,0,0.0000
20.5000,1006,3.2452
20.5042,1005,3.2419
20.5084,0,0.0000
20.5126,0,0.0000
20.5168,350,1.1290
20.5210,1007,3.2484
20.5253,1005,3.2419
20.5295,0,0.0000
20.5338,0,0.0000
20.5380,1004,3.2387
20.5422,1005,3.2419
20.5465,646,2.0839
20.5508,0,0.0000
20.5551,0,0.0000
20.5594,1004,3.2387
20.5638,1007,3.2484
20.5680,0,0.0000
20.5723,0,0.0000
20.5766,230,0.7419
20.5810,1006,3.2452
20.5853,1004,3.2387
20.5896,0,0.0000
20.5939,0,0.0000
20.5981,1005,3.2419
20.6023,1006,3.2452
20.6066,595,1.9194
20.6109,0,0.0000
20.6151,0,0.0000
20.6194,1007,3.2484
20.6237,1005,3.2419
20.6280,0,0.0000
20.6323,0,0.0000
20.6366,249,0.8032
20.6408,1004,3.2387
20.6451,1004,3.2387
20.6494,0,0.0000
20.6552,0,0.0000
20.6595,1005,3.2419
20.6639,1007,3.2484
20.6682,0,0.0000
20.6725,0,0.0000
20.6767,319,1.0290
20.6809,1006,3.2452
20.6851,1003,3.2355
20.6894,0,0.0000
20.6936,0,0.0000
20.6978,1000,3.2258
20.7021,1005,3.2419
20.7064,674,2.1742
20.7107,0,0.0000
20.7151,0,0.0000
20.7194,1004,3.2387
20.7237,1004,3.2387
20.7280,0,0.0000
20.7323,0,0.0000
20.7366,234,0.7548
20.7408,1008,3.2516
20.7451,1004,3.2387
20.7494,0,0.0000
20.7536,0,0.0000
20.7580,1003,3.2355
20.7623,1006,3.2452
20.7666,506,1.6323
20.7709,0,0.0000
20.7752,0,0.0000
20.7795,1004,3.2387
20.7838,1006,3.2452
20.7881,0,0.0000
20.7923,0,0.0000
20.7965,182,0.5871
20.8007,1006,3.2452
20.8049,1007,3.2484
20.8091,0,0.0000
20.8134,0,0.0000
20.8176,764,2.4645
20.8218,1004,3.2387
20.8260,820,2.6452
20.8302,0,0.0000
20.8344,0,0.0000
20.8387,1006,3.2452
20.8429,1006,3.2452
20.8472,93,0.3000
20.8515,0,0.0000
20.8558,0,0.0000
20.8601,1006,3.2452
20.8644,1004,3.2387
20.8686,0,0.0000
20.8729,0,0.0000
20.8771,603,1.9452
20.8814,1007,3.2484
20.8857,965,3.1129
20.8900,0,0.0000
20.8944,0,0.0000
20.8987,1007,3.2484
20.9029,1005,3.2419
20.9072,171,0.5516
20.9115,0,0.0000
20.9157,0,0.0000
20.9199,1005,3.2419
20.9241,1006,3.2452
20.9283,0,0.0000
20.9325,0,0.0000
20.9367,422,1.3613
20.9410,1004,3.2387
20.9452,1004,3.2387
20.9494,0,0.0000
20.9536,0,0.0000
20.9579,1005,3.2419
20.9621,1007,3.2484
20.9663,733,2.3645
20.9706,0,0.0000
20.9748,0,0.0000
20.9791,1004,3.2387
20.9834,1007,3.2484
20.9878,0,0.0000
20.9921,0,0.0000
20.9963,224,0.7226
21.0006,1004,3.2387
21.0049,1006,3.2452
21.0091,0,0.0000
21.0135,0,0.0000
21.0178,1005,3.2419
21.0220,1006,3.2452
21.0263,700,2.2581
21.0306,0,0.0000
21.0348,0,0.0000
21.0391,1007,3.2484
21.0434,1004,3.2387
21.0476,0,0.0000
21.0518,0,0.0000
21.0560,38,0.1226
21.0603,1005,3.2419
21.0645,1007,3.2484
21.0687,0,0.0000
21.0729,0,0.0000
21.0771,568,1.8323
21.0813,1006,3.2452
21.0855,977,3.1516
21.0898,0,0.0000
21.0940,0,0.0000
21.0982,1004,3.2387
21.1025,1007,3.2484
21.1068,317,1.0226
21.1111,0,0.0000
21.1154,0,0.0000
21.1197,1004,3.2387
21.1240,1005,3.2419
21.1283,0,0.0000
21.1326,0,0.0000
21.1369,480,1.5484
21.1412,1005,3.2419
21.1454,982,3.1677
21.1497,0,0.0000
21.1540,0,0.0000
21.1583,1007,3.2484
21.1626,1007,3.2484
21.1668,330,1.0645
21.1710,0,0.0000
21.1753,0,0.0000
21.1795,1007,3.2484
21.1838,1006,3.2452
21.1880,0,0.0000
21.1922,0,0.0000
21.1964,402,1.2968
21.2006,1006,3.2452
21.2048,1007,3.2484
21.2090,0,0.0000
21.2132,0,0.0000
21.2175,1006,3.2452
21.2217,1007,3.2484
21.2259,851,2.7452
21.2302,0,0.0000
21.2345,0,0.0000
21.2388,1004,3.2387
21.2431,1006,3.2452
21.2474,0,0.0000
21.2517,0,0.0000
21.2560,262,0.8452
21.2603,1007,3.2484
21.2646,1004,3.2387
21.2689,0,0.0000
21.2733,0,0.0000
21.2776,1004,3.2387
21.2818,1005,3.2419
21.2861,744,2.4000
21.2903,0,0.0000
21.2946,0,0.0000
21.2988,1005,3.2419
21.3031,1005,3.2419
21.3074,0,0.0000
21.3116,0,0.0000
21.3159,153,0.4935
21.3201,1007,3.2484
21.3243,1004,3.2387
21.3285,0,0.0000
21.3327,0,0.0000
21.3369,723,2.3323
21.3411,1005,3.2419
21.3454,994,3.2065
21.3496,0,0.0000
21.3538,0,0.0000
21.3580,1007,3.2484
21.3623,1007,3.2484
21.3665,456,1.4710
21.3707,0,0.0000
21.3751,0,0.0000
21.3794,1005,3.2419
21.3837,1007,3.2484
21.3881,0,0.0000
21.3924,0,0.0000
21.3966,581,1.8742
21.4010,1005,3.2419
21.4053,1001,3.2290
21.4097,0,0.0000
21.4140,0,0.0000
21.4183,1005,3.2419
21.4225,1004,3.2387
21.4268,232,0.7484
21.4311,0,0.0000
21.4353,0,0.0000
21.4396,1004,3.2387
21.4439,1006,3.2452
21.4482,0,0.0000
21.4525,0,0.0000
21.4567,632,2.0387
21.4609,1007,3.2484
21.4652,1004,3.2387
21.4694,0,0.0000
21.4736,0,0.0000
21.4778,1007,3.2484
21.4820,1005,3.2419
21.4862,607,1.9581
21.4905,0,0.0000
21.4947,0,0.0000
21.4989,1007,3.2484
21.5031,1006,3.2452
21.5073,0,0.0000
21.5116,0,0.0000
21.5158,203,0.6548
21.5201,1006,3.2452
21.5244,1004,3.2387
21.5288,0,0.0000
21.5331,0,0.0000
21.5374,1004,3.2387
21.5417,1007,3.2484
21.5460,713,2.3000
21.5503,0,0.0000
21.5555,83,0.2677
21.5599,1005,3.2419
21.5642,1004,3.2387
21.5684,0,0.0000
21.5727,0,0.0000
21.5770,852,2.7484
21.5812,1006,3.2452
21.5856,907,2.9258
21.5899,0,0.0000
21.5942,0,0.0000
21.5984,1007,3.2484
21.6027,1007,3.2484
21.6069,135,0.4355
21.6112,0,0.0000
21.6155,45,0.1452
21.6198,1004,3.2387
21.6241,1006,3.2452
21.6284,0,0.0000
21.6327,0,0.0000
21.6370,876,2.8258
21.6413,1005,3.2419
21.6456,861,2.7774
21.6499,0,0.0000
21.6542,0,0.0000
21.6585,1007,3.2484
21.6628,1003,3.2355
21.6671,0,0.0000
21.6714,0,0.0000
21.6757,137,0.4419
21.6800,1003,3.2355
21.6843,1005,3.2419
21.6886,0,0.0000
21.6929,0,0.0000
21.6972,1004,3.2387
21.7015,1006,3.2452
21.7058,752,2.4258
21.7102,0,0.0000
21.7145,0,0.0000
21.7188,1007,3.2484
21.7231,1007,3.2484
21.7274,0,0.0000
21.7317,0,0.0000
21.7360,297,0.9581
21.7403,1006,3.2452
21.7446,1002,3.2323
21.7489,0,0.0000
21.7532,0,0.0000
21.7575,1004,3.2387
21.7618,1007,3.2484
21.7662,607,1.9581
21.7705,0,0.0000
21.7748,0,0.0000
21.7791,1005,3.2419
21.7834,1007,3.2484
21.7877,0,0.0000
21.7920,0,0.0000
21.7963,529,1.7065
21.8006,1007,3.2484
21.8050,1003,3.2355
21.8093,0,0.0000
21.8136,0,0.0000
21.8179,1005,3.2419
21.8222,1006,3.2452
21.8265,377,1.2161
21.8308,0,0.0000
21.8351,0,0.0000
21.8394,1004,3.2387
21.8438,1006,3.2452
21.8481,0,0.0000
21.8524,0,0.0000
21.8567,762,2.4581
21.8610,1008,3.2516
21.8653,960,3.0968
21.8696,0,0.0000
21.8739,0,0.0000
21.8782,1007,3.2484
21.8825,1007,3.2484
21.8869,81,0.2613
21.8912,0,0.0000
21.8955,101,0.3258
21.8998,1006,3.2452
21.9041,1006,3.2452
21.9084,0,0.0000
21.9127,0,0.0000
21.9170,957,3.0871
21.9213,1007,3.2484
21.9256,823,2.6548
21.9299,0,0.0000
21.9342,0,0.0000
21.9386,1003,3.2355
21.9429,1005,3.2419
21.9472,0,0.0000
21.9515,0,0.0000
21.9558,224,0.7226
21.9601,1005,3.2419
21.9644,1005,3.2419
21.9687,0,0.0000
21.9731,0,0.0000
21.9773,1004,3.2387
21.9816,1005,3.2419
21.9860,617,1.9903
21.9903,0,0.0000
21.9946,0,0.0000
21.9989,1007,3.2484
22.0032,1005,3.2419
22.0075,0,0.0000
22.0119,0,0.0000
22.0162,422,1.3613
22.0205,1007,3.2484
22.0248,1004,3.2387
22.0291,0,0.0000
22.0334,0,0.0000
22.0377,1007,3.2484
22.0421,1005,3.2419
22.0464,396,1.2774
22.0506,0,0.0000
22.0549,0,0.0000
22.0592,1007,3.2484
22.0636,1005,3.2419
22.0678,0,0.0000
22.0721,0,0.0000
22.0764,586,1.8903
22.0807,1006,3.2452
22.0850,1003,3.2355
22.0893,0,0.0000
22.0936,0,0.0000
22.0979,1007,3.2484
22.1022,1004,3.2387
22.1065,310,1.0000
22.1108,0,0.0000
22.1151,0,0.0000
22.1194,1007,3.2484
22.1237,1007,3.2484
22.1281,0,0.0000
22.1324,0,0.0000
22.1367,807,2.6032
22.1410,1005,3.2419
22.1453,939,3.0290
22.1496,0,0.0000
22.1540,0,0.0000
22.1583,1005,3.2419
22.1626,1007,3.2484
22.1669,6,0.0194
22.1713,0,0.0000
22.1756,191,0.6161
22.1799,1007,3.2484
22.1842,1004,3.2387
22.1889,0,0.0000
22.1933,0,0.0000
22.1976,1004,3.2387
22.2019,1003,3.2355
22.2062,446,1.4387
22.2105,0,0.0000
22.2149,0,0.0000
22.2192,1005,3.2419
22.2235,1006,3.2452
22.2278,0,0.0000
22.2321,0,0.0000
22.2364,644,2.0774
22.2407,1007,3.2484
22.2450,997,3.2161
22.2493,0,0.0000
22.2536,0,0.0000
22.2579,1006,3.2452
22.2622,1006,3.2452
22.2665,232,0.7484
22.2708,0,0.0000
22.2751,0,0.0000
22.2794,1007,3.2484
22.2838,1006,3.2452
22.2881,0,0.0000
22.2925,0,0.0000
22.2968,894,2.8839
22.3011,1007,3.2484
22.3054,875,2.8226
22.3097,0,0.0000
22.3140,0,0.0000
22.3183,1007,3.2484
22.3227,1007,3.2484
22.3270,0,0.0000
22.3313,0,0.0000
22.3356,206,0.6645
22.3399,1006,3.2452
22.3442,1004,3.2387
22.3485,0,0.0000
22.3528,0,0.0000
22.3572,1005,3.2419
22.3615,1007,3.2484
22.3658,712,2.2968
22.3701,0,0.0000
22.3744,0,0.0000
22.3787,1004,3.2387
22.3830,1007,3.2484
22.3873,0,0.0000
22.3916,0,0.0000
22.3959,272,0.8774
22.4002,1006,3.2452
22.4046,1004,3.2387
22.4088,0,0.0000
22.4131,0,0.0000
22.4175,1007,3.2484
22.4218,1005,3.2419
22.4261,523,1.6871
22.4304,0,0.0000
22.4347,0,0.0000
22.4390,1006,3.2452
22.4433,1007,3.2484
22.4477,0,0.0000
22.4519,0,0.0000
22.4563,441,1.4226
22.4607,1007,3.2484
22.4650,994,3.2065
22.4693,0,0.0000
22.4736,0,0.0000
22.4779,1006,3.2452
22.4822,1008,3.2516
22.4865,193,0.6226
22.4907,0,0.0000
22.4950,0,0.0000
22.4991,1006,3.2452
22.5033,1005,3.2419
22.5075,0,0.0000
22.5118,0,0.0000
22.5160,271,0.8742
22.5202,1004,3.2387
22.5244,1004,3.2387
22.5286,0,0.0000
22.5328,0,0.0000
22.5370,954,3.0774
22.5413,1005,3.2419
22.5457,720,2.3226
22.5501,0,0.0000
22.5545,0,0.0000
22.5589,1007,3.2484
22.5633,1005,3.2419
22.5677,0,0.0000
22.5721,0,0.0000
22.5766,603,1.9452
22.5811,1007,3.2484
22.5855,752,2.4258
22.5899,0,0.0000
22.5943,0,0.0000
22.5987,1004,3.2387
22.6032,1006,3.2452
22.6076,0,0.0000
22.6121,0,0.0000
22.6166,626,2.0194
22.6211,1005,3.2419
22.6255,767,2.4742
22.6299,0,0.0000
22.6343,0,0.0000
22.6387,1007,3.2484
22.6431,1007,3.2484
22.6475,0,0.0000
22.6519,0,0.0000
22.6563,447,1.4419
22.6606,1006,3.2452
22.6650,974,3.1419
22.6694,0,0.0000
22.6737,0,0.0000
22.6781,1006,3.2452
22.6824,1004,3.2387
22.6868,0,0.0000
22.6912,0,0.0000
22.6956,136,0.4387
22.6999,1006,3.2452
22.7043,1006,3.2452
22.7087,0,0.0000
22.7131,0,0.0000
22.7174,1004,3.2387
22.7217,1004,3.2387
22.7261,458,1.4774
22.7305,0,0.0000
22.7349,0,0.0000
22.7392,1005,3.2419
22.7436,1003,3.2355
22.7480,0,0.0000
22.7523,0,0.0000
22.7567,695,2.2419
22.7610,1006,3.2452
22.7654,761,2.4548
22.7698,0,0.0000
22.7741,0,0.0000
22.7785,1004,3.2387
22.7829,1007,3.2484
22.7873,0,0.0000
22.7917,0,0.0000
22.7960,327,1.0548
22.8004,1004,3.2387
22.8047,1001,3.2290
22.8090,0,0.0000
22.8134,0,0.0000
22.8178,1006,3.2452
22.8221,1004,3.2387
22.8265,115,0.3710
22.8308,0,0.0000
22.8352,0,0.0000
22.8396,1003,3.2355
22.8440,1005,3.2419
22.8484,0,0.0000
22.8528,0,0.0000
22.8571,998,3.2194
22.8615,1007,3.2484
22.8658,537,1.7323
22.8702,0,0.0000
22.8745,0,0.0000
22.8789,1006,3.2452
22.8833,1006,3.2452
22.8876,0,0.0000
22.8920,0,0.0000
22.8964,544,1.7548
22.9008,1006,3.2452
22.9051,897,2.8935
22.9095,0,0.0000
22.9138,0,0.0000
22.9182,1005,3.2419
22.9226,1007,3.2484
22.9270,0,0.0000
22.9314,0,0.0000
22.9358,221,0.7129
22.9402,1005,3.2419
22.9445,1002,3.2323
22.9489,0,0.0000
22.9533,0,0.0000
22.9577,1005,3.2419
22.9621,1006,3.2452
22.9665,93,0.3000
22.9709,0,0.0000
22.9753,30,0.0968
22.9797,1005,3.2419
22.9841,1004,3.2387
22.9886,0,0.0000
22.9930,0,0.0000
22.9974,1006,3.2452
23.0017,1004,3.2387
23.0061,369,1.1903
23.0104,0,0.0000
23.0148,0,0.0000
23.0192,1006,3.2452
23.0235,1004,3.2387
23.0279,0,0.0000
23.0323,0,0.0000
23.0367,814,2.6258
23.0411,1005,3.2419
23.0455,745,2.4032
23.0498,0,0.0000
23.0542,0,0.0000
23.0586,1006,3.2452
23.0630,1007,3.2484
23.0674,0,0.0000
23.0718,0,0.0000
23.0763,564,1.8194
23.0806,1007,3.2484
23.0850,941,3.0355
23.0894,0,0.0000
23.0937,0,0.0000
23.0981,1004,3.2387
23.1025,1006,3.2452
23.1069,0,0.0000
23.1112,0,0.0000
23.1156,206,0.6645
23.1200,1007,3.2484
23.1244,1004,3.2387
23.1288,0,0.0000
23.1332,0,0.0000
23.1376,1004,3.2387
23.1419,1005,3.2419
23.1463,229,0.7387
23.1507,0,0.0000
23.1550,0,0.0000
23.1594,1007,3.2484
23.1638,1006,3.2452
23.1682,0,0.0000
23.1725,0,0.0000
23.1769,977,3.1516
23.1813,1007,3.2484
23.1857,625,2.0161
23.1901,0,0.0000
23.1944,0,0.0000
23.1988,1007,3.2484
23.2032,1006,3.2452
23.2076,0,0.0000
23.2120,0,0.0000
23.2164,626,2.0194
23.2208,1006,3.2452
23.2251,864,2.7871
23.2295,0,0.0000
23.2341,0,0.0000
23.2384,1003,3.2355
23.2428,1004,3.2387
23.2472,0,0.0000
23.2516,0,0.0000
23.2559,347,1.1194
23.2603,1005,3.2419
23.2646,997,3.2161
23.2690,0,0.0000
23.2734,0,0.0000
23.2778,1005,3.2419
23.2822,1007,3.2484
23.2866,0,0.0000
23.2910,0,0.0000
23.2954,79,0.2548
23.2997,1007,3.2484
23.3041,1006,3.2452
23.3085,0,0.0000
23.3128,0,0.0000
23.3172,1006,3.2452
23.3215,1007,3.2484
23.3259,413,1.3323
23.3302,0,0.0000
23.3346,0,0.0000
23.3390,1006,3.2452
23.3433,1005,3.2419
23.3477,0,0.0000
23.3520,0,0.0000
23.3568,976,3.1484
23.3612,1006,3.2452
23.3655,671,2.1645
23.3698,0,0.0000
23.3742,0,0.0000
23.3785,1003,3.2355
23.3829,1007,3.2484
23.3873,0,0.0000
23.3916,0,0.0000
23.3960,424,1.3677
23.4003,1007,3.2484
23.4047,1000,3.2258
23.4090,0,0.0000
23.4133,0,0.0000
23.4177,1006,3.2452
23.4220,1007,3.2484
23.4264,109,0.3516
23.4307,0,0.0000
23.4351,2,0.0065
23.4394,1005,3.2419
23.4438,1005,3.2419
23.4481,0,0.0000
23.4525,0,0.0000
23.4568,1006,3.2452
23.4612,1007,3.2484
23.4655,645,2.0806
23.4698,0,0.0000
23.4742,0,0.0000
23.4785,1007,3.2484
23.4829,1007,3.2484
23.4872,0,0.0000
23.4916,0,0.0000
23.4959,559,1.8032
23.5002,1005,3.2419
23.5046,996,3.2129
23.5089,0,0.0000
23.5133,0,0.0000
23.5177,1005,3.2419
23.5220,1006,3.2452
23.5263,75,0.2419
23.5306,0,0.0000
23.5350,89,0.2871
23.5394,1007,3.2484
23.5437,1005,3.2419
23.5480,0,0.0000
23.5524,0,0.0000
23.5568,1007,3.2484
23.5611,1007,3.2484
23.5654,667,2.1516
23.5697,0,0.0000
23.5741,0,0.0000
23.5784,1007,3.2484
23.5827,1006,3.2452
23.5871,0,0.0000
23.5914,0,0.0000
23.5958,520,1.6774
23.6001,1004,3.2387
23.6044,1000,3.2258
23.6088,0,0.0000
23.6131,0,0.0000
23.6175,1005,3.2419
23.6218,1006,3.2452
23.6262,195,0.6290
23.6305,0,0.0000
23.6349,87,0.2806
23.6392,1005,3.2419
23.6436,1004,3.2387
23.6480,0,0.0000
23.6525,0,0.0000
23.6569,1004,3.2387
23.6614,1005,3.2419
23.6658,442,1.4258
23.6702,0,0.0000
23.6746,0,0.0000
23.6791,1005,3.2419
23.6835,1007,3.2484
23.6880,0,0.0000
23.6924,0,0.0000
23.6968,1003,3.2355
23.7013,1004,3.2387
23.7057,437,1.4097
23.7102,0,0.0000
23.7147,2,0.0065
23.7191,1004,3.2387
23.7237,1007,3.2484
23.7281,0,0.0000
23.7324,0,0.0000
23.7368,1006,3.2452
23.7412,1006,3.2452
23.7456,487,1.5710
23.7500,0,0.0000
23.7544,0,0.0000
23.7588,1007,3.2484
23.7632,1007,3.2484
23.7675,0,0.0000
23.7719,0,0.0000
23.7763,861,2.7774
23.7806,1005,3.2419
23.7850,788,2.5419
23.7894,0,0.0000
23.7938,0,0.0000
23.7982,1005,3.2419
23.8025,1007,3.2484
23.8069,0,0.0000
23.8113,0,0.0000
23.8156,470,1.5161
23.8200,1006,3.2452
23.8244,1001,3.2290
23.8288,0,0.0000
23.8331,0,0.0000
23.8375,1006,3.2452
23.8419,1007,3.2484
23.8463,25,0.0806
23.8506,0,0.0000
23.8550,168,0.5419
23.8594,1004,3.2387
23.8638,1004,3.2387
23.8682,0,0.0000
23.8725,0,0.0000
23.8769,1005,3.2419
23.8813,1003,3.2355
23.8857,432,1.3935
23.8901,0,0.0000
23.8945,0,0.0000
23.8988,1003,3.2355
23.9032,1004,3.2387
23.9076,0,0.0000
23.9120,0,0.0000
23.9164,1000,3.2258
23.9208,1005,3.2419
23.9251,772,2.4903
23.9295,0,0.0000
23.9340,0,0.0000
23.9383,1004,3.2387
23.9427,1006,3.2452
23.9471,0,0.0000
23.9515,0,0.0000
23.9573,1006,3.2452
23.9617,1007,3.2484
23.9661,214,0.6903
23.9704,0,0.0000
23.9747,78,0.2516
23.9790,1005,3.2419
23.9834,1006,3.2452
23.9878,0,0.0000
23.9922,0,0.0000
23.9965,1001,3.2290
24.0008,1006,3.2452
24.0052,665,2.1452
24.0097,0,0.0000
24.0140,0,0.0000
24.0184,1003,3.2355
24.0232,1004,3.2387
24.0276,0,0.0000
24.0320,0,0.0000
24.0363,964,3.1097
24.0407,1007,3.2484
24.0451,732,2.3613
24.0494,0,0.0000
24.0539,0,0.0000
24.0582,1006,3.2452
24.0626,1007,3.2484
24.0670,0,0.0000
24.0713,0,0.0000
24.0757,530,1.7097
24.0801,1007,3.2484
24.0846,923,2.9774
24.0890,0,0.0000
24.0935,0,0.0000
24.0979,1005,3.2419
24.1023,1007,3.2484
24.1067,0,0.0000
24.1112,0,0.0000
24.1156,496,1.6000
24.1200,1007,3.2484
24.1244,983,3.1710
24.1289,0,0.0000
24.1333,0,0.0000
24.1378,1005,3.2419
24.1422,1007,3.2484
24.1467,0,0.0000
24.1511,0,0.0000
24.1556,551,1.7774
24.1601,1007,3.2484
24.1646,955,3.0806
24.1689,0,0.0000
24.1733,0,0.0000
24.1778,1005,3.2419
24.1822,1005,3.2419
24.1866,0,0.0000
24.1910,0,0.0000
24.1955,489,1.5774
24.1999,1007,3.2484
24.2044,999,3.2226
24.2088,0,0.0000
24.2133,0,0.0000
24.2177,1007,3.2484
24.2221,1007,3.2484
24.2265,0,0.0000
24.2310,0,0.0000
24.2354,464,1.4968
24.2399,1006,3.2452
24.2443,1001,3.2290
24.2487,0,0.0000
24.2531,0,0.0000
24.2577,1007,3.2484
24.2620,1007,3.2484
24.2664,0,0.0000
24.2707,0,0.0000
24.2750,258,0.8323
24.2794,1006,3.2452
24.2838,1005,3.2419
24.2881,0,0.0000
24.2925,0,0.0000
24.2968,1005,3.2419
24.3011,1007,3.2484
24.3054,535,1.7258
24.3097,0,0.0000
24.3141,0,0.0000
24.3184,1006,3.2452
24.3228,1007,3.2484
24.3271,0,0.0000
24.3314,0,0.0000
24.3357,658,2.1226
24.3401,1005,3.2419
24.3445,991,3.1968
24.3489,0,0.0000
24.3533,0,0.0000
24.3578,1006,3.2452
24.3622,1007,3.2484
24.3666,0,0.0000
24.3710,0,0.0000
24.3755,352,1.1355
24.3799,1006,3.2452
24.3843,998,3.2194
24.3887,0,0.0000
24.3931,0,0.0000
24.3975,1006,3.2452
24.4019,1006,3.2452
24.4063,0,0.0000
24.4107,0,0.0000
24.4151,156,0.5032
24.4196,1007,3.2484
24.4240,1004,3.2387
24.4284,0,0.0000
24.4329,0,0.0000
24.4373,1006,3.2452
24.4418,1004,3.2387
24.4462,0,0.0000
24.4506,0,0.0000
24.4550,136,0.4387
24.4594,1007,3.2484
24.4639,1003,3.2355
24.4683,0,0.0000
24.4727,0,0.0000
24.4771,1004,3.2387
24.4815,1004,3.2387
24.4860,153,0.4935
24.4904,0,0.0000
24.4949,95,0.3065
24.4993,1005,3.2419
24.5038,1004,3.2387
24.5083,0,0.0000
24.5127,0,0.0000
24.5171,1005,3.2419
24.5216,1008,3.2516
24.5260,163,0.5258
24.5304,0,0.0000
24.5348,84,0.2710
24.5392,1006,3.2452
24.5437,1006,3.2452
24.5481,0,0.0000
24.5526,0,0.0000
24.5570,1007,3.2484
24.5615,1004,3.2387
24.5659,200,0.6452
24.5703,0,0.0000
24.5747,5,0.0161
24.5791,1006,3.2452
24.5836,1005,3.2419
24.5880,0,0.0000
24.5925,0,0.0000
24.5970,1004,3.2387
24.6014,1004,3.2387
24.6058,195,0.6290
24.6102,0,0.0000
24.6146,0,0.0000
24.6190,1007,3.2484
24.6234,1005,3.2419
24.6277,0,0.0000
24.6321,0,0.0000
24.6364,934,3.0129
24.6408,1006,3.2452
24.6452,557,1.7968
24.6496,0,0.0000
24.6540,0,0.0000
24.6584,1004,3.2387
24.6627,1005,3.2419
24.6671,0,0.0000
24.6715,0,0.0000
24.6758,533,1.7194
24.6802,1006,3.2452
24.6846,845,2.7258
24.6890,0,0.0000
24.6934,0,0.0000
24.6977,1004,3.2387
24.7021,1005,3.2419
24.7064,0,0.0000
24.7108,0,0.0000
24.7152,234,0.7548
24.7195,1003,3.2355
24.7239,1005,3.2419
24.7282,0,0.0000
24.7326,0,0.0000
24.7370,1005,3.2419
24.7413,1005,3.2419
24.7457,283,0.9129
24.7501,0,0.0000
24.7545,0,0.0000
24.7589,1007,3.2484
24.7633,1004,3.2387
24.7676,0,0.0000
24.7720,0,0.0000
24.7763,1000,3.2258
24.7807,1005,3.2419
24.7850,731,2.3581
24.7894,0,0.0000
24.7938,0,0.0000
24.7982,1005,3.2419
24.8026,1004,3.2387
24.8069,0,0.0000
24.8113,0,0.0000
24.8157,625,2.0161
24.8200,1007,3.2484
24.8244,958,3.0903
24.8288,0,0.0000
24.8331,0,0.0000
24.8375,1003,3.2355
24.8418,1006,3.2452
24.8462,0,0.0000
24.8506,0,0.0000
24.8550,170,0.5484
24.8594,1005,3.2419
24.8638,1004,3.2387
24.8681,0,0.0000
24.8724,0,0.0000
24.8768,1003,3.2355
24.8811,1007,3.2484
24.8855,358,1.1548
24.8898,0,0.0000
24.8942,0,0.0000
24.8986,1004,3.2387
24.9030,1006,3.2452
24.9074,0,0.0000
24.9118,0,0.0000
24.9162,818,2.6387
24.9206,1008,3.2516
24.9249,673,2.1710
24.9292,0,0.0000
24.9335,0,0.0000
24.9379,1007,3.2484
24.9423,1006,3.2452
24.9467,0,0.0000
24.9511,0,0.0000
24.9556,478,1.5419
24.9600,1004,3.2387
24.9644,890,2.8710
24.9689,0,0.0000
24.9733,0,0.0000
24.9777,1006,3.2452
24.9822,1007,3.2484
24.9866,0,0.0000
24.9910,0,0.0000
24.9954,426,1.3742
24.9998,1008,3.2516
25.0043,957,3.0871
25.0087,0,0.0000
25.0131,0,0.0000
25.0175,1007,3.2484
25.0221,1005,3.2419
25.0265,0,0.0000
25.0309,0,0.0000
25.0355,545,1.7581
25.0401,1006,3.2452
25.0446,868,2.8000
25.0491,0,0.0000
25.0535,0,0.0000
25.0579,1004,3.2387
25.0623,1004,3.2387
25.0668,0,0.0000
25.0712,0,0.0000
25.0756,617,1.9903
25.0800,1007,3.2484
25.0844,933,3.0097
25.0888,0,0.0000
25.0932,0,0.0000
25.0976,1004,3.2387
25.1021,1006,3.2452
25.1066,0,0.0000
25.1111,0,0.0000
25.1155,557,1.7968
25.1198,1006,3.2452
25.1242,1001,3.2290
25.1285,0,0.0000
25.1329,0,0.0000
25.1372,1004,3.2387
25.1416,1007,3.2484
25.1459,129,0.4161
25.1502,0,0.0000
25.1546,66,0.2129
25.1589,1006,3.2452
25.1633,1007,3.2484
25.1676,0,0.0000
25.1720,0,0.0000
25.1763,986,3.1806
25.1806,1007,3.2484
25.1849,650,2.0968
25.1892,0,0.0000
25.1936,0,0.0000
25.1980,1006,3.2452
25.2024,1007,3.2484
25.2067,0,0.0000
25.2111,0,0.0000
25.2155,501,1.6161
25.2199,1008,3.2516
25.2243,951,3.0677
25.2287,0,0.0000
25.2330,0,0.0000
25.2374,1004,3.2387
25.2418,1007,3.2484
25.2462,0,0.0000
25.2505,0,0.0000
25.2549,176,0.5677
25.2592,1007,3.2484
25.2635,1006,3.2452
25.2679,0,0.0000
25.2722,0,0.0000
25.2766,1005,3.2419
25.2809,1004,3.2387
25.2852,500,1.6129
25.2895,0,0.0000
25.2939,0,0.0000
25.2983,1006,3.2452
25.3027,1006,3.2452
25.3071,0,0.0000
25.3114,0,0.0000
25.3158,824,2.6581
25.3202,1005,3.2419
25.3245,864,2.7871
25.3290,0,0.0000
25.3334,0,0.0000
25.3378,1007,3.2484
25.3421,1005,3.2419
25.3465,0,0.0000
25.3508,0,0.0000
25.3552,414,1.3355
25.3596,1007,3.2484
25.3640,1001,3.2290
25.3683,0,0.0000
25.3727,0,0.0000
25.3770,1007,3.2484
25.3814,1007,3.2484
25.3858,130,0.4194
25.3901,0,0.0000
25.3945,76,0.2452
25.3990,1006,3.2452
25.4034,1003,3.2355
25.4077,0,0.0000
25.4120,0,0.0000
25.4164,1005,3.2419
25.4208,1004,3.2387
25.4252,442,1.4258
25.4296,0,0.0000
25.4339,0,0.0000
25.4383,1007,3.2484
25.4427,1006,3.2452
25.4471,0,0.0000
25.4515,0,0.0000
25.4558,727,2.3452
25.4602,1005,3.2419
25.4646,743,2.3968
25.4690,0,0.0000
25.4734,0,0.0000
25.4777,1006,3.2452
25.4821,1004,3.2387
25.4865,0,0.0000
25.4908,0,0.0000
25.4952,336,1.0839
25.4996,1004,3.2387
25.5040,988,3.1871
25.5084,0,0.0000
25.5128,0,0.0000
25.5171,1006,3.2452
25.5215,1007,3.2484
25.5259,1,0.0032
25.5303,0,0.0000
25.5346,126,0.4065
25.5390,1005,3.2419
25.5434,1006,3.2452
25.5477,0,0.0000
25.5521,0,0.0000
25.5564,1004,3.2387
25.5608,1007,3.2484
25.5652,492,1.5871
25.5695,0,0.0000
25.5739,0,0.0000
25.5782,1005,3.2419
25.5825,1006,3.2452
25.5869,0,0.0000
25.5913,0,0.0000
25.5957,787,2.5387
25.6000,1007,3.2484
25.6044,873,2.8161
25.6088,0,0.0000
25.6132,0,0.0000
25.6176,1006,3.2452
25.6219,1006,3.2452
25.6263,0,0.0000
25.6307,0,0.0000
25.6350,397,1.2806
25.6394,1007,3.2484
25.6438,1004,3.2387
25.6482,0,0.0000
25.6526,0,0.0000
25.6569,1007,3.2484
25.6612,1007,3.2484
25.6656,207,0.6677
25.6698,0,0.0000
25.6740,0,0.0000
25.6782,1005,3.2419
25.6824,1006,3.2452
25.6867,0,0.0000
25.6910,0,0.0000
25.6953,465,1.5000
25.6996,1006,3.2452
25.7039,997,3.2161
25.7083,0,0.0000
25.7125,0,0.0000
25.7168,1005,3.2419
25.7211,1006,3.2452
25.7252,379,1.2226
25.7294,0,0.0000
25.7336,0,0.0000
25.7378,1005,3.2419
25.7419,1006,3.2452
25.7461,0,0.0000
25.7503,0,0.0000
25.7545,98,0.3161
25.7588,1006,3.2452
25.7631,1003,3.2355
25.7673,0,0.0000
25.7715,0,0.0000
25.7756,693,2.2355
25.7798,1007,3.2484
25.7840,992,3.2000
25.7882,0,0.0000
25.7924,0,0.0000
25.7965,1007,3.2484
25.8007,1004,3.2387
25.8049,584,1.8839
25.8091,0,0.0000
25.8132,0,0.0000
25.8174,1006,3.2452
25.8216,1006,3.2452
25.8258,40,0.1290
25.8300,0,0.0000
25.8341,0,0.0000
25.8383,998,3.2194
25.8426,1006,3.2452
25.8468,0,0.0000
25.8509,0,0.0000
25.8551,495,1.5968
25.8652,438,1.4129
25.8695,0,0.0000
25.8737,0,0.0000
25.8779,1006,3.2452
25.8821,1004,3.2387
25.8863,0,0.0000
25.8905,0,0.0000
25.8946,214,0.6903
25.8988,1004,3.2387
25.9030,1007,3.2484
25.9072,0,0.0000
25.9113,0,0.0000
25.9155,735,2.3710
25.9197,1005,3.2419
25.9239,1000,3.2258
25.9281,0,0.0000
25.9322,0,0.0000
25.9364,1004,3.2387
25.9406,1007,3.2484
25.9448,659,2.1258
25.9490,0,0.0000
25.9531,0,0.0000
25.9573,1007,3.2484
25.9615,1006,3.2452
25.9657,65,0.2097
25.9699,0,0.0000
25.9741,0,0.0000
25.9782,1005,3.2419
25.9824,1004,3.2387
25.9866,0,0.0000
25.9908,0,0.0000
25.9950,355,1.1452
25.9991,1004,3.2387
26.0033,1006,3.2452
26.0075,0,0.0000
26.0117,0,0.0000
26.0159,934,3.0129
26.0201,1004,3.2387
26.0242,880,2.8387
26.0284,0,0.0000
26.0326,0,0.0000
26.0368,1006,3.2452
26.0409,1007,3.2484
26.0451,405,1.3065
26.0493,0,0.0000
26.0535,0,0.0000
26.0578,1007,3.2484
26.0621,1006,3.2452
26.0663,0,0.0000
26.0705,0,0.0000
26.0747,249,0.8032
26.0789,1007,3.2484
26.0830,1006,3.2452
26.0872,0,0.0000
26.0914,0,0.0000
26.0956,789,2.5452
26.0997,1007,3.2484
26.1039,996,3.2129
26.1081,0,0.0000
26.1123,0,0.0000
26.1165,1005,3.2419
26.1206,1003,3.2355
26.1248,598,1.9290
26.1290,0,0.0000
26.1332,0,0.0000
26.1374,1006,3.2452
26.1415,1007,3.2484
26.1458,0,0.0000
26.1500,0,0.0000
26.1541,51,0.1645
26.1583,1005,3.2419
26.1625,1006,3.2452
26.1667,0,0.0000
26.1709,0,0.0000
26.1751,480,1.5484
26.1792,1006,3.2452
26.1834,1005,3.2419
26.1876,0,0.0000
26.1918,0,0.0000
26.1960,1001,3.2290
26.2001,1004,3.2387
26.2043,818,2.6387
26.2085,0,0.0000
26.2127,0,0.0000
26.2168,1004,3.2387
26.2210,1007,3.2484
26.2252,306,0.9871
26.2294,0,0.0000
26.2336,0,0.0000
26.2377,1005,3.2419
26.2419,1005,3.2419
26.2461,0,0.0000
26.2503,0,0.0000
26.2544,126,0.4065
26.2586,1005,3.2419
26.2628,1007,3.2484
26.2670,0,0.0000
26.2712,0,0.0000
26.2754,600,1.9355
26.2795,1007,3.2484
26.2837,994,3.2065
26.2879,0,0.0000
26.2921,0,0.0000
26.2963,1005,3.2419
26.3005,1006,3.2452
26.3046,617,1.9903
26.3088,0,0.0000
26.3130,0,0.0000
26.3172,1007,3.2484
26.3214,1006,3.2452
26.3255,68,0.2194
26.3297,0,0.0000
26.3339,0,0.0000
26.3381,1004,3.2387
26.3422,1004,3.2387
26.3464,0,0.0000
26.3506,0,0.0000
26.3548,360,1.1613
26.3590,1006,3.2452
26.3631,1006,3.2452
26.3673,0,0.0000
26.3715,0,0.0000
26.3757,976,3.1484
26.3799,1006,3.2452
26.3840,946,3.0516
26.3882,0,0.0000
26.3924,0,0.0000
26.3966,1006,3.2452
26.4008,1005,3.2419
26.4049,527,1.7000
26.4091,0,0.0000
26.4133,0,0.0000
26.4175,1006,3.2452
26.4217,1004,3.2387
26.4258,0,0.0000
26.4300,0,0.0000
26.4342,117,0.3774
26.4384,1007,3.2484
26.4426,1007,3.2484
26.4467,0,0.0000
26.4509,0,0.0000
26.4551,707,2.2806
26.4593,1004,3.2387
26.4634,1002,3.2323
26.4676,0,0.0000
26.4718,0,0.0000
26.4760,1006,3.2452
26.4802,1006,3.2452
26.4844,730,2.3548
26.4885,0,0.0000
26.4927,0,0.0000
26.4969,1005,3.2419
26.5011,1004,3.2387
26.5053,179,0.5774
26.5094,0,0.0000
26.5136,0,0.0000
26.5178,1006,3.2452
26.5220,1004,3.2387
26.5262,0,0.0000
26.5303,0,0.0000
26.5345,352,1.1355
26.5387,1005,3.2419
26.5429,1002,3.2323
26.5470,0,0.0000
26.5512,0,0.0000
26.5554,912,2.9419
26.5596,1006,3.2452
26.5638,949,3.0613
26.5679,0,0.0000
26.5722,0,0.0000
26.5763,1006,3.2452
26.5805,1007,3.2484
26.5847,498,1.6065
26.5889,0,0.0000
26.5931,0,0.0000
26.5972,1005,3.2419
26.6014,1005,3.2419
26.6056,0,0.0000
26.6098,0,0.0000
26.6139,104,0.3355
26.6181,1003,3.2355
26.6223,1005,3.2419
26.6265,0,0.0000
26.6307,0,0.0000
26.6348,577,1.8613
26.6390,1006,3.2452
26.6432,1005,3.2419
26.6474,0,0.0000
26.6516,0,0.0000
26.6559,1005,3.2419
26.6602,1005,3.2419
26.6644,658,2.1226
26.6686,0,0.0000
26.6728,0,0.0000
26.6770,1004,3.2387
26.6811,1003,3.2355
26.6853,140,0.4516
26.6894,0,0.0000
26.6936,0,0.0000
26.6977,1005,3.2419
26.7020,1004,3.2387
26.7061,0,0.0000
26.7104,0,0.0000
26.7147,549,1.7710
26.7190,1007,3.2484
26.7233,1004,3.2387
26.7276,0,0.0000
26.7318,0,0.0000
26.7361,1007,3.2484
26.7405,1006,3.2452
26.7448,436,1.4065
26.7491,0,0.0000
26.7534,0,0.0000
26.7578,1006,3.2452
26.7621,1007,3.2484
26.7664,0,0.0000
26.7708,0,0.0000
26.7752,859,2.7710
26.7795,1005,3.2419
26.7839,890,2.8710
26.7882,0,0.0000
26.7925,0,0.0000
26.7969,1006,3.2452
26.8012,1006,3.2452
26.8057,0,0.0000
26.8100,0,0.0000
26.8143,293,0.9452
26.8186,1007,3.2484
26.8229,1004,3.2387
26.8272,0,0.0000
26.8315,0,0.0000
26.8358,1004,3.2387
26.8401,1006,3.2452
26.8444,615,1.9839
26.8487,0,0.0000
26.8530,0,0.0000
26.8573,1006,3.2452
26.8616,1007,3.2484
26.8659,0,0.0000
26.8702,0,0.0000
26.8745,452,1.4581
26.8789,1007,3.2484
26.8832,1004,3.2387
26.8874,0,0.0000
26.8917,0,0.0000
26.8960,1006,3.2452
26.9003,1005,3.2419
26.9046,471,1.5194
26.9090,0,0.0000
26.9133,0,0.0000
26.9175,1005,3.2419
26.9219,1005,3.2419
26.9262,0,0.0000
26.9305,0,0.0000
26.9347,603,1.9452
26.9391,1005,3.2419
26.9433,1000,3.2258
26.9476,0,0.0000
26.9522,0,0.0000
26.9579,1006,3.2452
26.9624,1005,3.2419
26.9667,0,0.0000
26.9711,0,0.0000
