time_s,adc_raw,voltage
0.0000,1006,3.2452
0.0044,699,2.2548
0.0087,0,0.0000
0.0131,1000,3.2258
0.0173,1005,3.2419
0.0216,1006,3.2452
0.0259,0,0.0000
0.0302,0,0.0000
0.0344,1005,3.2419
0.0385,1005,3.2419
0.0427,1006,3.2452
0.0469,0,0.0000
0.0510,0,0.0000
0.0552,1007,3.2484
0.0593,1006,3.2452
0.0635,1003,3.2355
0.0677,0,0.0000
0.0718,115,0.3710
0.0760,1006,3.2452
0.0801,1004,3.2387
0.0843,696,2.2452
0.0885,0,0.0000
0.0927,560,1.8065
0.0968,1005,3.2419
0.1010,1007,3.2484
0.1051,201,0.6484
0.1093,0,0.0000
0.1135,1004,3.2387
0.1176,1006,3.2452
0.1218,1007,3.2484
0.1260,0,0.0000
0.1302,0,0.0000
0.1343,1005,3.2419
0.1385,1004,3.2387
0.1427,1004,3.2387
0.1469,0,0.0000
0.1511,207,0.6677
0.1552,1005,3.2419
0.1594,1006,3.2452
0.1635,1003,3.2355
0.1677,0,0.0000
0.1719,362,1.1677
0.1760,1005,3.2419
0.1802,1006,3.2452
0.1844,742,2.3935
0.1885,0,0.0000
0.1927,653,2.1065
0.1969,1003,3.2355
0.2010,1005,3.2419
0.2052,68,0.2194
0.2094,0,0.0000
0.2135,1003,3.2355
0.2177,1007,3.2484
0.2219,1004,3.2387
0.2260,0,0.0000
0.2302,0,0.0000
0.2343,1004,3.2387
0.2385,1006,3.2452
0.2427,1004,3.2387
0.2468,0,0.0000
0.2510,0,0.0000
0.2551,1007,3.2484
0.2593,1006,3.2452
0.2635,996,3.2129
0.2676,0,0.0000
0.2718,414,1.3355
0.2759,1005,3.2419
0.2801,1006,3.2452
0.2843,680,2.1935
0.2884,0,0.0000
0.2926,855,2.7581
0.2967,1007,3.2484
0.3009,1005,3.2419
0.3051,95,0.3065
0.3093,0,0.0000
0.3134,1004,3.2387
0.3176,1005,3.2419
0.3217,1004,3.2387
0.3259,0,0.0000
0.3301,0,0.0000
0.3342,1006,3.2452
0.3384,1006,3.2452
0.3426,1004,3.2387
0.3468,0,0.0000
0.3509,0,0.0000
0.3551,1007,3.2484
0.3592,1006,3.2452
0.3634,921,2.9710
0.3676,0,0.0000
0.3717,373,1.2032
0.3759,1006,3.2452
0.3801,1006,3.2452
0.3844,567,1.8290
0.3886,0,0.0000
0.3927,978,3.1548
0.3969,1005,3.2419
0.4011,1004,3.2387
0.4055,0,0.0000
0.4097,0,0.0000
0.4139,1005,3.2419
0.4180,1006,3.2452
0.4224,1006,3.2452
0.4269,0,0.0000
0.4311,0,0.0000
0.4352,1006,3.2452
0.4394,1005,3.2419
0.4436,788,2.5419
0.4477,0,0.0000
0.4519,294,0.9484
0.4561,1004,3.2387
0.4602,1004,3.2387
0.4644,335,1.0806
0.4686,0,0.0000
0.4727,712,2.2968
0.4769,1003,3.2355
0.4810,1007,3.2484
0.4852,0,0.0000
0.4894,0,0.0000
0.4935,1006,3.2452
0.4977,1006,3.2452
0.5018,1006,3.2452
0.5060,0,0.0000
0.5102,0,0.0000
0.5144,1005,3.2419
0.5185,1005,3.2419
0.5227,1004,3.2387
0.5268,0,0.0000
0.5310,40,0.1290
0.5352,1007,3.2484
0.5394,1006,3.2452
0.5436,807,2.6032
0.5477,0,0.0000
0.5519,490,1.5806
0.5561,1005,3.2419
0.5603,1004,3.2387
0.5644,335,1.0806
0.5686,0,0.0000
0.5728,872,2.8129
0.5770,1007,3.2484
0.5811,1007,3.2484
0.5853,0,0.0000
0.5895,0,0.0000
0.5936,1007,3.2484
0.5978,1006,3.2452
0.6020,1006,3.2452
0.6061,0,0.0000
0.6103,0,0.0000
0.6145,1005,3.2419
0.6187,1005,3.2419
0.6229,1003,3.2355
0.6270,0,0.0000
0.6312,295,0.9516
0.6356,1007,3.2484
0.6398,1006,3.2452
0.6440,612,1.9742
0.6482,0,0.0000
0.6524,1004,3.2387
0.6565,1006,3.2452
0.6607,1005,3.2419
0.6649,155,0.5000
0.6690,0,0.0000
0.6732,1006,3.2452
0.6774,1007,3.2484
0.6815,1005,3.2419
0.6857,0,0.0000
0.6899,0,0.0000
0.6940,1005,3.2419
0.6982,1007,3.2484
0.7023,1004,3.2387
0.7065,0,0.0000
0.7107,0,0.0000
0.7148,1004,3.2387
0.7190,1004,3.2387
0.7231,926,2.9871
0.7273,0,0.0000
0.7315,289,0.9323
0.7356,1007,3.2484
0.7398,1004,3.2387
0.7440,554,1.7871
0.7481,0,0.0000
0.7523,696,2.2452
0.7564,1003,3.2355
0.7606,1007,3.2484
0.7648,0,0.0000
0.7689,0,0.0000
0.7731,1004,3.2387
0.7773,1005,3.2419
0.7814,1006,3.2452
0.7856,0,0.0000
0.7898,0,0.0000
0.7939,1005,3.2419
0.7981,1006,3.2452
0.8023,1003,3.2355
0.8064,0,0.0000
0.8106,0,0.0000
0.8147,1005,3.2419
0.8189,1004,3.2387
0.8231,898,2.8968
0.8272,0,0.0000
0.8314,210,0.6774
0.8356,1006,3.2452
0.8397,1007,3.2484
0.8439,452,1.4581
0.8481,0,0.0000
0.8522,774,2.4968
0.8564,1006,3.2452
0.8605,1005,3.2419
0.8647,0,0.0000
0.8688,0,0.0000
0.8730,1004,3.2387
0.8772,1005,3.2419
0.8813,1005,3.2419
0.8855,0,0.0000
0.8896,0,0.0000
0.8938,1005,3.2419
0.8980,1006,3.2452
0.9021,1004,3.2387
0.9063,0,0.0000
0.9104,0,0.0000
0.9146,1006,3.2452
0.9188,1003,3.2355
0.9230,897,2.8935
0.9271,0,0.0000
0.9313,251,0.8097
0.9354,1007,3.2484
0.9396,1006,3.2452
0.9438,509,1.6419
0.9479,0,0.0000
0.9521,712,2.2968
0.9563,1004,3.2387
0.9604,1005,3.2419
0.9646,0,0.0000
0.9688,0,0.0000
0.9729,1004,3.2387
0.9771,1006,3.2452
0.9813,1005,3.2419
0.9854,0,0.0000
0.9896,0,0.0000
0.9939,1006,3.2452
0.9983,1005,3.2419
1.0025,999,3.2226
1.0068,0,0.0000
1.0111,176,0.5677
1.0154,1006,3.2452
1.0197,1005,3.2419
1.0240,275,0.8871
1.0283,0,0.0000
1.0325,1001,3.2290
1.0368,1006,3.2452
1.0411,1006,3.2452
1.0455,0,0.0000
1.0497,0,0.0000
1.0541,1004,3.2387
1.0584,1006,3.2452
1.0626,940,3.0323
1.0669,0,0.0000
1.0712,234,0.7548
1.0755,1006,3.2452
1.0798,1004,3.2387
1.0841,26,0.0839
1.0884,0,0.0000
1.0927,1005,3.2419
1.0969,1005,3.2419
1.1012,1005,3.2419
1.1055,0,0.0000
1.1097,0,0.0000
1.1140,1007,3.2484
1.1182,1006,3.2452
1.1225,988,3.1871
1.1268,0,0.0000
1.1310,186,0.6000
1.1353,1006,3.2452
1.1395,1005,3.2419
1.1438,253,0.8161
1.1481,0,0.0000
1.1523,932,3.0065
1.1566,1006,3.2452
1.1609,1006,3.2452
1.1651,0,0.0000
1.1693,0,0.0000
1.1736,1006,3.2452
1.1778,1007,3.2484
1.1821,1003,3.2355
1.1863,0,0.0000
1.1906,72,0.2323
1.1949,1006,3.2452
1.1991,1006,3.2452
1.2034,555,1.7903
1.2076,0,0.0000
1.2119,790,2.5484
1.2162,1006,3.2452
1.2204,1004,3.2387
1.2247,0,0.0000
1.2289,0,0.0000
1.2332,1005,3.2419
1.2374,1006,3.2452
1.2417,1005,3.2419
1.2460,0,0.0000
1.2503,0,0.0000
1.2545,1006,3.2452
1.2588,1006,3.2452
1.2630,693,2.2355
1.2673,0,0.0000
1.2715,541,1.7452
1.2758,1006,3.2452
1.2800,1004,3.2387
1.2843,0,0.0000
1.2886,0,0.0000
1.2928,1006,3.2452
1.2971,1006,3.2452
1.3013,1004,3.2387
1.3056,0,0.0000
1.3099,0,0.0000
1.3142,1006,3.2452
1.3184,1006,3.2452
1.3226,795,2.5645
1.3269,0,0.0000
1.3312,396,1.2774
1.3355,1004,3.2387
1.3397,1004,3.2387
1.3440,0,0.0000
1.3483,0,0.0000
1.3526,1007,3.2484
1.3568,1006,3.2452
1.3611,1005,3.2419
1.3654,0,0.0000
1.3696,0,0.0000
1.3739,1005,3.2419
1.3781,1006,3.2452
1.3823,931,3.0032
1.3866,0,0.0000
1.3908,324,1.0452
1.3951,1007,3.2484
1.3994,1005,3.2419
1.4036,303,0.9774
1.4079,0,0.0000
1.4123,1006,3.2452
1.4166,1006,3.2452
1.4208,1005,3.2419
1.4251,0,0.0000
1.4294,0,0.0000
1.4336,1005,3.2419
1.4379,1006,3.2452
1.4421,1000,3.2258
1.4464,0,0.0000
1.4507,354,1.1419
1.4549,1007,3.2484
1.4592,1006,3.2452
1.4634,437,1.4097
1.4677,0,0.0000
1.4720,1003,3.2355
1.4762,1005,3.2419
1.4805,1005,3.2419
1.4847,0,0.0000
1.4890,0,0.0000
1.4933,1004,3.2387
1.4975,1006,3.2452
1.5018,1003,3.2355
1.5061,0,0.0000
1.5104,114,0.3677
1.5146,1006,3.2452
1.5189,1006,3.2452
1.5231,472,1.5226
1.5273,0,0.0000
1.5316,720,2.3226
1.5358,1006,3.2452
1.5401,1006,3.2452
1.5444,0,0.0000
1.5486,0,0.0000
1.5529,1005,3.2419
1.5572,1006,3.2452
1.5614,1004,3.2387
1.5657,0,0.0000
1.5700,0,0.0000
1.5742,1005,3.2419
1.5785,1005,3.2419
1.5827,659,2.1258
1.5870,0,0.0000
1.5913,705,2.2742
1.5956,1006,3.2452
1.5999,1005,3.2419
1.6042,0,0.0000
1.6084,0,0.0000
1.6127,1007,3.2484
1.6170,1007,3.2484
1.6212,1005,3.2419
1.6255,0,0.0000
1.6297,325,1.0484
1.6341,1005,3.2419
1.6383,1006,3.2452
1.6425,972,3.1355
1.6468,0,0.0000
1.6511,752,2.4258
1.6554,1005,3.2419
1.6596,1005,3.2419
1.6639,21,0.0677
1.6682,0,0.0000
1.6725,1005,3.2419
1.6768,1004,3.2387
1.6810,1005,3.2419
1.6853,0,0.0000
1.6896,16,0.0516
1.6938,1004,3.2387
1.6981,1006,3.2452
1.7024,917,2.9581
1.7066,0,0.0000
1.7109,824,2.6581
1.7152,1006,3.2452
1.7194,1006,3.2452
1.7237,221,0.7129
1.7280,0,0.0000
1.7323,1004,3.2387
1.7366,1005,3.2419
1.7408,1004,3.2387
1.7451,0,0.0000
1.7494,0,0.0000
1.7536,1005,3.2419
1.7579,1006,3.2452
1.7622,921,2.9710
1.7664,0,0.0000
1.7707,354,1.1419
1.7750,1006,3.2452
1.7792,1006,3.2452
1.7835,167,0.5387
1.7877,0,0.0000
1.7920,1005,3.2419
1.7963,1006,3.2452
1.8006,1004,3.2387
1.8048,0,0.0000
1.8091,0,0.0000
1.8133,1006,3.2452
1.8176,1004,3.2387
1.8219,943,3.0419
1.8266,0,0.0000
1.8308,460,1.4839
1.8351,1006,3.2452
1.8394,1005,3.2419
1.8436,6,0.0194
1.8479,0,0.0000
1.8521,1004,3.2387
1.8563,1006,3.2452
1.8606,1004,3.2387
1.8648,0,0.0000
1.8691,0,0.0000
1.8733,1005,3.2419
1.8776,1004,3.2387
1.8818,946,3.0516
1.8861,0,0.0000
1.8904,354,1.1419
1.8946,1004,3.2387
1.8990,1005,3.2419
1.9032,191,0.6161
1.9075,0,0.0000
1.9117,1004,3.2387
1.9160,1006,3.2452
1.9202,1004,3.2387
1.9245,0,0.0000
1.9287,0,0.0000
1.9330,1005,3.2419
1.9372,1005,3.2419
1.9415,998,3.2194
1.9457,0,0.0000
1.9500,334,1.0774
1.9542,1006,3.2452
1.9585,1005,3.2419
1.9627,581,1.8742
1.9670,0,0.0000
1.9713,944,3.0452
1.9755,1005,3.2419
1.9798,1004,3.2387
1.9841,0,0.0000
1.9883,0,0.0000
1.9926,1005,3.2419
1.9968,1005,3.2419
2.0012,1003,3.2355
2.0055,0,0.0000
2.0098,64,0.2065
2.0141,1004,3.2387
2.0183,1004,3.2387
2.0226,514,1.6581
2.0269,0,0.0000
2.0311,767,2.4742
2.0354,1006,3.2452
2.0397,1004,3.2387
2.0439,0,0.0000
2.0482,0,0.0000
2.0525,1007,3.2484
2.0567,1006,3.2452
2.0610,1003,3.2355
2.0652,0,0.0000
2.0695,0,0.0000
2.0737,1005,3.2419
2.0780,1006,3.2452
2.0823,677,2.1839
2.0865,0,0.0000
2.0908,595,1.9194
2.0951,1006,3.2452
2.0993,1005,3.2419
2.1036,0,0.0000
2.1078,0,0.0000
2.1121,1006,3.2452
2.1163,1006,3.2452
2.1206,1005,3.2419
2.1249,0,0.0000
2.1291,0,0.0000
2.1334,1006,3.2452
2.1376,1004,3.2387
2.1419,739,2.3839
2.1462,0,0.0000
2.1504,351,1.1323
2.1547,1007,3.2484
2.1590,1005,3.2419
2.1632,0,0.0000
2.1675,0,0.0000
2.1717,1005,3.2419
2.1760,1005,3.2419
2.1802,1005,3.2419
2.1845,0,0.0000
2.1887,0,0.0000
2.1930,1005,3.2419
2.1972,1004,3.2387
2.2015,922,2.9742
2.2058,0,0.0000
2.2101,304,0.9806
2.2143,1006,3.2452
2.2186,1005,3.2419
2.2228,254,0.8194
2.2271,0,0.0000
2.2314,1006,3.2452
2.2356,1007,3.2484
2.2399,1005,3.2419
2.2441,0,0.0000
2.2484,0,0.0000
2.2527,1006,3.2452
2.2570,1004,3.2387
2.2612,999,3.2226
2.2655,0,0.0000
2.2697,161,0.5194
2.2740,1006,3.2452
2.2783,1006,3.2452
2.2825,404,1.3032
2.2868,0,0.0000
2.2911,1001,3.2290
2.2954,1005,3.2419
2.2997,1006,3.2452
2.3040,0,0.0000
2.3083,0,0.0000
2.3126,1006,3.2452
2.3168,1005,3.2419
2.3211,1003,3.2355
2.3254,0,0.0000
2.3296,283,0.9129
2.3339,1006,3.2452
2.3382,1005,3.2419
2.3424,516,1.6645
2.3466,0,0.0000
2.3510,1005,3.2419
2.3552,1006,3.2452
2.3594,1004,3.2387
2.3637,0,0.0000
2.3679,0,0.0000
2.3722,1005,3.2419
2.3765,1006,3.2452
2.3807,1005,3.2419
2.3850,0,0.0000
2.3893,7,0.0226
2.3935,1006,3.2452
2.3978,1006,3.2452
2.4021,609,1.9645
2.4063,0,0.0000
2.4106,653,2.1065
2.4148,1004,3.2387
2.4191,1005,3.2419
2.4233,0,0.0000
2.4276,0,0.0000
2.4318,1006,3.2452
2.4361,1005,3.2419
2.4403,1004,3.2387
2.4446,0,0.0000
2.4488,0,0.0000
2.4531,1006,3.2452
2.4574,1006,3.2452
2.4616,816,2.6323
2.4659,0,0.0000
2.4701,952,3.0710
2.4744,1004,3.2387
2.4787,1004,3.2387
2.4829,244,0.7871
2.4872,0,0.0000
2.4915,1007,3.2484
2.4957,1000,3.2258
2.5000,1006,3.2452
2.5043,0,0.0000
2.5085,0,0.0000
2.5128,1006,3.2452
2.5170,1005,3.2419
2.5213,980,3.1613
2.5255,0,0.0000
2.5298,373,1.2032
2.5341,1006,3.2452
2.5383,1003,3.2355
2.5426,261,0.8419
2.5468,0,0.0000
2.5511,1004,3.2387
2.5554,1004,3.2387
2.5597,1006,3.2452
2.5639,0,0.0000
2.5682,0,0.0000
2.5724,1007,3.2484
2.5767,1007,3.2484
2.5809,998,3.2194
2.5852,0,0.0000
2.5895,455,1.4677
2.5937,1006,3.2452
2.5980,1006,3.2452
2.6023,511,1.6484
2.6065,0,0.0000
2.6108,1002,3.2323
2.6151,1005,3.2419
2.6194,1005,3.2419
2.6236,0,0.0000
2.6279,0,0.0000
2.6322,1005,3.2419
2.6364,1005,3.2419
2.6407,1002,3.2323
2.6449,0,0.0000
2.6492,42,0.1355
2.6535,1004,3.2387
2.6578,1006,3.2452
2.6621,358,1.1548
2.6663,0,0.0000
2.6706,818,2.6387
2.6748,1007,3.2484
2.6791,1004,3.2387
2.6834,0,0.0000
2.6876,0,0.0000
2.6919,1005,3.2419
2.6962,1005,3.2419
2.7004,1001,3.2290
2.7047,0,0.0000
2.7090,0,0.0000
2.7132,1007,3.2484
2.7175,1006,3.2452
2.7217,575,1.8548
2.7260,0,0.0000
2.7302,764,2.4645
2.7345,1007,3.2484
2.7387,1006,3.2452
2.7430,0,0.0000
2.7472,0,0.0000
2.7514,1006,3.2452
2.7557,1006,3.2452
2.7600,1004,3.2387
2.7643,0,0.0000
2.7685,76,0.2452
2.7728,1006,3.2452
2.7770,1005,3.2419
2.7813,910,2.9355
2.7855,0,0.0000
2.7898,677,2.1839
2.7941,1006,3.2452
2.7983,1005,3.2419
2.8026,16,0.0516
2.8069,0,0.0000
2.8111,1004,3.2387
2.8154,1006,3.2452
2.8196,1005,3.2419
2.8239,0,0.0000
2.8282,0,0.0000
2.8324,1005,3.2419
2.8367,1006,3.2452
2.8409,911,2.9387
2.8452,0,0.0000
2.8494,245,0.7903
2.8537,1006,3.2452
2.8579,1006,3.2452
2.8622,207,0.6677
2.8664,0,0.0000
2.8707,1000,3.2258
2.8749,1007,3.2484
2.8792,1006,3.2452
2.8835,0,0.0000
2.8877,0,0.0000
2.8920,1005,3.2419
2.8962,1006,3.2452
2.9005,989,3.1903
2.9048,0,0.0000
2.9091,134,0.4323
2.9133,1004,3.2387
2.9176,1005,3.2419
2.9219,368,1.1871
2.9261,0,0.0000
2.9304,888,2.8645
2.9346,1005,3.2419
2.9389,1005,3.2419
2.9432,0,0.0000
2.9475,0,0.0000
2.9520,1007,3.2484
2.9569,1006,3.2452
2.9614,592,1.9097
2.9658,0,0.0000
2.9702,868,2.8000
2.9745,1006,3.2452
2.9790,1006,3.2452
2.9834,0,0.0000
2.9877,0,0.0000
2.9922,1006,3.2452
2.9966,1006,3.2452
3.0011,717,2.3129
3.0057,0,0.0000
3.0100,681,2.1968
3.0143,1007,3.2484
3.0184,1006,3.2452
3.0226,0,0.0000
3.0268,0,0.0000
3.0310,1005,3.2419
3.0351,1005,3.2419
3.0393,1004,3.2387
3.0434,0,0.0000
3.0476,0,0.0000
3.0518,1007,3.2484
3.0559,1003,3.2355
3.0601,1004,3.2387
3.0642,0,0.0000
3.0684,0,0.0000
3.0726,1007,3.2484
3.0767,1003,3.2355
3.0809,861,2.7774
3.0851,0,0.0000
3.0892,417,1.3452
3.0934,1007,3.2484
3.0975,1006,3.2452
3.1017,456,1.4710
3.1059,0,0.0000
3.1101,851,2.7452
3.1142,1005,3.2419
3.1184,1004,3.2387
3.1225,0,0.0000
3.1267,0,0.0000
3.1309,1005,3.2419
3.1350,1004,3.2387
3.1392,1004,3.2387
3.1433,0,0.0000
3.1475,0,0.0000
3.1517,1005,3.2419
3.1558,1007,3.2484
3.1600,1000,3.2258
3.1641,0,0.0000
3.1683,0,0.0000
3.1725,1006,3.2452
3.1766,1005,3.2419
3.1808,814,2.6258
3.1849,0,0.0000
3.1891,282,0.9097
3.1933,1006,3.2452
3.1974,1004,3.2387
3.2016,336,1.0839
3.2057,0,0.0000
3.2099,888,2.8645
3.2141,1006,3.2452
3.2182,1004,3.2387
3.2224,0,0.0000
3.2266,0,0.0000
3.2307,1006,3.2452
3.2349,1006,3.2452
3.2391,1004,3.2387
3.2432,0,0.0000
3.2474,0,0.0000
3.2515,1006,3.2452
3.2557,1004,3.2387
3.2599,1002,3.2323
3.2640,0,0.0000
3.2682,23,0.0742
3.2724,1004,3.2387
3.2765,1004,3.2387
3.2807,918,2.9613
3.2848,0,0.0000
3.2890,614,1.9806
3.2932,1006,3.2452
3.2973,1005,3.2419
3.3015,604,1.9484
3.3056,0,0.0000
3.3098,980,3.1613
3.3140,1005,3.2419
3.3181,1006,3.2452
3.3223,0,0.0000
3.3265,0,0.0000
3.3306,1004,3.2387
3.3348,1004,3.2387
3.3390,1004,3.2387
3.3431,0,0.0000
3.3473,0,0.0000
3.3514,1005,3.2419
3.3556,1006,3.2452
3.3598,1002,3.2323
3.3639,0,0.0000
3.3681,0,0.0000
3.3722,1004,3.2387
3.3764,1006,3.2452
3.3806,894,2.8839
3.3847,0,0.0000
3.3889,325,1.0484
3.3930,1007,3.2484
3.3972,1006,3.2452
3.4013,500,1.6129
3.4055,0,0.0000
3.4097,736,2.3742
3.4138,1005,3.2419
3.4180,1006,3.2452
3.4221,0,0.0000
3.4263,0,0.0000
3.4305,1004,3.2387
3.4346,1004,3.2387
3.4388,1004,3.2387
3.4430,0,0.0000
3.4471,0,0.0000
3.4513,1005,3.2419
3.4554,1006,3.2452
3.4596,1003,3.2355
3.4638,0,0.0000
3.4679,0,0.0000
3.4721,1004,3.2387
3.4762,1005,3.2419
3.4804,918,2.9613
3.4846,0,0.0000
3.4887,265,0.8548
3.4929,1006,3.2452
3.4971,1004,3.2387
3.5012,506,1.6323
3.5054,0,0.0000
3.5095,755,2.4355
3.5137,1005,3.2419
3.5179,1007,3.2484
3.5220,0,0.0000
3.5262,0,0.0000
3.5303,1005,3.2419
3.5345,1005,3.2419
3.5387,1004,3.2387
3.5428,0,0.0000
3.5470,0,0.0000
3.5511,1005,3.2419
3.5553,1007,3.2484
3.5595,1004,3.2387
3.5637,0,0.0000
3.5678,0,0.0000
3.5720,1004,3.2387
3.5762,1004,3.2387
3.5803,876,2.8258
3.5845,0,0.0000
3.5887,275,0.8871
3.5928,1006,3.2452
3.5970,1006,3.2452
3.6011,430,1.3871
3.6053,0,0.0000
3.6095,698,2.2516
3.6137,1006,3.2452
3.6178,1000,3.2258
3.6220,0,0.0000
3.6262,0,0.0000
3.6303,1006,3.2452
3.6345,1006,3.2452
3.6386,1004,3.2387
3.6428,0,0.0000
3.6469,0,0.0000
3.6511,1005,3.2419
3.6553,1007,3.2484
3.6594,1003,3.2355
3.6636,0,0.0000
3.6680,0,0.0000
3.6722,1004,3.2387
3.6764,1007,3.2484
3.6805,651,2.1000
3.6847,0,0.0000
3.6889,333,1.0742
3.6930,1006,3.2452
3.6972,1004,3.2387
3.7014,148,0.4774
3.7055,0,0.0000
3.7097,953,3.0742
3.7141,1006,3.2452
3.7184,1005,3.2419
3.7226,0,0.0000
3.7269,0,0.0000
3.7312,1007,3.2484
3.7355,1005,3.2419
3.7398,968,3.1226
3.7441,0,0.0000
3.7484,196,0.6323
3.7527,1005,3.2419
3.7570,1006,3.2452
3.7614,124,0.4000
3.7657,0,0.0000
3.7700,1005,3.2419
3.7743,1004,3.2387
3.7785,1004,3.2387
3.7828,0,0.0000
3.7871,0,0.0000
3.7914,1005,3.2419
3.7956,1006,3.2452
3.8000,883,2.8484
3.8042,0,0.0000
3.8085,277,0.8935
3.8128,1005,3.2419
3.8171,1006,3.2452
3.8214,89,0.2871
3.8256,0,0.0000
3.8299,1005,3.2419
3.8342,1004,3.2387
3.8384,1007,3.2484
3.8427,0,0.0000
3.8469,0,0.0000
3.8512,1006,3.2452
3.8555,1004,3.2387
3.8598,911,2.9387
3.8641,0,0.0000
3.8683,219,0.7065
3.8726,1004,3.2387
3.8768,1004,3.2387
3.8811,216,0.6968
3.8854,0,0.0000
3.8896,1002,3.2323
3.8939,1004,3.2387
3.8981,1006,3.2452
3.9024,0,0.0000
3.9067,0,0.0000
3.9110,1005,3.2419
3.9153,1006,3.2452
3.9196,970,3.1290
3.9239,0,0.0000
3.9281,203,0.6548
3.9324,1006,3.2452
3.9366,1004,3.2387
3.9409,320,1.0323
3.9452,0,0.0000
3.9494,969,3.1258
3.9537,1007,3.2484
3.9579,1006,3.2452
3.9622,0,0.0000
3.9665,0,0.0000
3.9707,1006,3.2452
3.9750,1006,3.2452
3.9793,1002,3.2323
3.9835,0,0.0000
3.9878,84,0.2710
3.9921,1005,3.2419
3.9963,1006,3.2452
4.0005,537,1.7323
4.0048,0,0.0000
4.0091,854,2.7548
4.0133,1005,3.2419
4.0176,1005,3.2419
4.0218,0,0.0000
4.0261,0,0.0000
4.0303,1005,3.2419
4.0346,1004,3.2387
4.0388,1004,3.2387
4.0431,0,0.0000
4.0474,0,0.0000
4.0516,1006,3.2452
4.0559,1005,3.2419
4.0601,800,2.5806
4.0644,0,0.0000
4.0687,639,2.0613
4.0729,1005,3.2419
4.0772,1002,3.2323
4.0815,0,0.0000
4.0858,0,0.0000
4.0900,1005,3.2419
4.0943,1006,3.2452
4.0985,1005,3.2419
4.1028,0,0.0000
4.1070,0,0.0000
4.1113,1006,3.2452
4.1156,1007,3.2484
4.1198,885,2.8548
4.1241,0,0.0000
4.1284,429,1.3839
4.1326,1005,3.2419
4.1369,1006,3.2452
4.1411,100,0.3226
4.1454,0,0.0000
4.1497,1006,3.2452
4.1540,1006,3.2452
4.1582,1006,3.2452
4.1624,0,0.0000
4.1667,0,0.0000
4.1710,1006,3.2452
4.1753,1005,3.2419
4.1796,897,2.8935
4.1838,0,0.0000
4.1881,281,0.9065
4.1923,1005,3.2419
4.1966,1006,3.2452
4.2008,134,0.4323
4.2051,0,0.0000
4.2094,1003,3.2355
4.2137,1004,3.2387
4.2180,1007,3.2484
4.2222,0,0.0000
4.2265,0,0.0000
4.2309,1006,3.2452
4.2351,1005,3.2419
4.2394,972,3.1355
4.2436,0,0.0000
4.2479,221,0.7129
4.2522,1006,3.2452
4.2564,1004,3.2387
4.2607,248,0.8000
4.2649,0,0.0000
4.2692,1003,3.2355
4.2735,1007,3.2484
4.2777,1004,3.2387
4.2820,0,0.0000
4.2863,0,0.0000
4.2905,1006,3.2452
4.2948,1006,3.2452
4.2990,1003,3.2355
4.3033,0,0.0000
4.3075,87,0.2806
4.3118,1006,3.2452
4.3161,1007,3.2484
4.3203,452,1.4581
4.3246,0,0.0000
4.3288,818,2.6387
4.3331,1006,3.2452
4.3374,1006,3.2452
4.3416,0,0.0000
4.3459,0,0.0000
4.3502,1005,3.2419
4.3544,1005,3.2419
4.3587,1004,3.2387
4.3629,0,0.0000
4.3672,0,0.0000
4.3715,1006,3.2452
4.3757,1006,3.2452
4.3800,476,1.5355
4.3843,0,0.0000
4.3885,567,1.8290
4.3928,1006,3.2452
4.3971,1006,3.2452
4.4013,0,0.0000
4.4056,0,0.0000
4.4098,1005,3.2419
4.4141,1005,3.2419
4.4184,1003,3.2355
4.4226,0,0.0000
4.4269,0,0.0000
4.4312,1007,3.2484
4.4355,1005,3.2419
4.4398,520,1.6774
4.4440,0,0.0000
4.4483,496,1.6000
4.4526,1005,3.2419
4.4568,1006,3.2452
4.4611,0,0.0000
4.4653,0,0.0000
4.4696,1006,3.2452
4.4739,1005,3.2419
4.4782,1003,3.2355
4.4824,0,0.0000
4.4867,0,0.0000
4.4909,1007,3.2484
4.4952,1006,3.2452
4.4994,801,2.5839
4.5037,0,0.0000
4.5079,348,1.1226
4.5122,1006,3.2452
4.5165,1005,3.2419
4.5208,0,0.0000
4.5250,0,0.0000
4.5293,1005,3.2419
4.5335,1007,3.2484
4.5378,1006,3.2452
4.5420,0,0.0000
4.5463,0,0.0000
4.5506,1006,3.2452
4.5548,1005,3.2419
4.5591,940,3.0323
4.5634,0,0.0000
4.5676,269,0.8677
4.5719,1006,3.2452
4.5762,1006,3.2452
4.5805,141,0.4548
4.5847,0,0.0000
4.5890,1005,3.2419
4.5933,1006,3.2452
4.5976,1006,3.2452
4.6018,0,0.0000
4.6061,0,0.0000
4.6103,1004,3.2387
4.6146,1005,3.2419
4.6190,928,2.9935
4.6232,0,0.0000
4.6313,1004,3.2387
4.6358,1005,3.2419
4.6402,283,0.9129
4.6445,0,0.0000
4.6489,1005,3.2419
4.6532,1006,3.2452
4.6574,1007,3.2484
4.6617,0,0.0000
4.6659,0,0.0000
4.6702,1007,3.2484
4.6744,1005,3.2419
4.6787,998,3.2194
4.6829,0,0.0000
4.6872,82,0.2645
4.6914,1006,3.2452
4.6957,1006,3.2452
4.6999,418,1.3484
4.7042,0,0.0000
4.7084,847,2.7323
4.7128,1006,3.2452
4.7170,1006,3.2452
4.7213,0,0.0000
4.7255,0,0.0000
4.7298,1007,3.2484
4.7340,1005,3.2419
4.7382,1002,3.2323
4.7424,0,0.0000
4.7466,0,0.0000
4.7509,1004,3.2387
4.7551,1006,3.2452
4.7593,774,2.4968
4.7635,0,0.0000
4.7677,566,1.8258
4.7720,1005,3.2419
4.7762,1006,3.2452
4.7805,113,0.3645
4.7847,0,0.0000
4.7889,1006,3.2452
4.7931,1005,3.2419
4.7974,1005,3.2419
4.8016,0,0.0000
4.8058,0,0.0000
4.8100,1006,3.2452
4.8143,1005,3.2419
4.8186,1003,3.2355
4.8229,0,0.0000
4.8272,448,1.4452
4.8315,1007,3.2484
4.8358,1006,3.2452
4.8401,427,1.3774
4.8444,0,0.0000
4.8486,1004,3.2387
4.8530,1006,3.2452
4.8572,1005,3.2419
4.8615,0,0.0000
4.8658,0,0.0000
4.8701,1005,3.2419
4.8744,1003,3.2355
4.8787,994,3.2065
4.8830,0,0.0000
4.8872,299,0.9645
4.8915,1006,3.2452
4.8958,1007,3.2484
4.9001,225,0.7258
4.9044,0,0.0000
4.9087,1005,3.2419
4.9129,1006,3.2452
4.9172,1005,3.2419
4.9215,0,0.0000
4.9258,0,0.0000
4.9301,1006,3.2452
4.9344,1004,3.2387
4.9387,945,3.0484
4.9430,0,0.0000
4.9473,280,0.9032
4.9516,1006,3.2452
4.9559,1006,3.2452
4.9601,124,0.4000
4.9645,0,0.0000
4.9688,1006,3.2452
4.9731,1006,3.2452
4.9774,1005,3.2419
4.9817,0,0.0000
4.9860,0,0.0000
4.9903,1005,3.2419
4.9945,1004,3.2387
4.9988,828,2.6710
5.0031,0,0.0000
5.0075,413,1.3323
5.0119,1005,3.2419
5.0166,1005,3.2419
5.0212,0,0.0000
5.0256,0,0.0000
5.0299,1006,3.2452
5.0343,1007,3.2484
5.0387,860,2.7742
5.0430,0,0.0000
5.0473,341,1.1000
5.0516,1006,3.2452
5.0559,1006,3.2452
5.0601,5,0.0161
5.0644,0,0.0000
5.0686,1004,3.2387
5.0729,1006,3.2452
5.0772,1004,3.2387
5.0814,0,0.0000
5.0857,0,0.0000
5.0899,1006,3.2452
5.0942,1006,3.2452
5.0985,987,3.1839
5.1027,0,0.0000
5.1070,221,0.7129
5.1112,1007,3.2484
5.1155,1006,3.2452
5.1197,252,0.8129
5.1240,0,0.0000
5.1282,980,3.1613
5.1325,1006,3.2452
5.1368,1004,3.2387
5.1410,0,0.0000
5.1453,0,0.0000
5.1496,1005,3.2419
5.1538,1005,3.2419
5.1581,998,3.2194
5.1624,0,0.0000
5.1666,40,0.1290
5.1709,1006,3.2452
5.1751,1006,3.2452
5.1794,402,1.2968
5.1837,0,0.0000
5.1879,723,2.3323
5.1922,1006,3.2452
5.1964,1005,3.2419
5.2007,0,0.0000
5.2049,0,0.0000
5.2092,1007,3.2484
5.2135,1004,3.2387
5.2177,1004,3.2387
5.2219,0,0.0000
5.2263,0,0.0000
5.2305,1005,3.2419
5.2349,1006,3.2452
5.2391,563,1.8161
5.2434,0,0.0000
5.2477,678,2.1871
5.2520,1005,3.2419
5.2563,1005,3.2419
5.2606,0,0.0000
5.2649,0,0.0000
5.2691,1006,3.2452
5.2735,1005,3.2419
5.2777,1004,3.2387
5.2820,0,0.0000
5.2863,0,0.0000
5.2906,1004,3.2387
5.2949,1005,3.2419
5.2991,508,1.6387
5.3034,0,0.0000
5.3077,744,2.4000
5.3120,1007,3.2484
5.3163,1006,3.2452
5.3206,0,0.0000
5.3249,0,0.0000
5.3292,1006,3.2452
5.3335,1005,3.2419
5.3377,1003,3.2355
5.3420,0,0.0000
5.3463,55,0.1774
5.3506,1006,3.2452
5.3549,1006,3.2452
5.3592,436,1.4065
5.3635,0,0.0000
5.3678,794,2.5613
5.3721,1006,3.2452
5.3764,1006,3.2452
5.3807,0,0.0000
5.3849,0,0.0000
5.3892,1005,3.2419
5.3935,1005,3.2419
5.3978,1003,3.2355
5.4021,0,0.0000
5.4063,67,0.2161
5.4106,1005,3.2419
5.4149,1006,3.2452
5.4192,433,1.3968
5.4235,0,0.0000
5.4278,1002,3.2323
5.4321,1005,3.2419
5.4364,1006,3.2452
5.4407,0,0.0000
5.4450,0,0.0000
5.4492,1005,3.2419
5.4535,1006,3.2452
5.4578,1004,3.2387
5.4621,0,0.0000
5.4664,221,0.7129
5.4706,1005,3.2419
5.4750,1005,3.2419
5.4793,375,1.2097
5.4835,0,0.0000
5.4878,1001,3.2290
5.4921,1006,3.2452
5.4964,1005,3.2419
5.5007,0,0.0000
5.5050,0,0.0000
5.5092,1005,3.2419
5.5135,1005,3.2419
5.5178,999,3.2226
5.5222,0,0.0000
5.5265,190,0.6129
5.5312,1004,3.2387
5.5356,1005,3.2419
5.5399,0,0.0000
5.5442,0,0.0000
5.5484,1005,3.2419
5.5527,1005,3.2419
5.5570,1005,3.2419
5.5613,0,0.0000
5.5656,0,0.0000
5.5698,1006,3.2452
5.5741,1006,3.2452
5.5784,793,2.5581
5.5827,0,0.0000
5.5870,597,1.9258
5.5913,1004,3.2387
5.5956,1005,3.2419
5.5999,0,0.0000
5.6042,0,0.0000
5.6084,1006,3.2452
5.6127,1006,3.2452
5.6170,1006,3.2452
5.6213,0,0.0000
5.6256,0,0.0000
5.6299,1006,3.2452
5.6342,1006,3.2452
5.6385,751,2.4226
5.6428,0,0.0000
5.6470,691,2.2290
5.6513,1004,3.2387
5.6556,1006,3.2452
5.6599,0,0.0000
5.6642,0,0.0000
5.6685,1006,3.2452
5.6728,1005,3.2419
5.6770,1004,3.2387
5.6813,0,0.0000
5.6857,0,0.0000
5.6899,1004,3.2387
5.6942,1006,3.2452
5.6985,692,2.2323
5.7028,0,0.0000
5.7071,723,2.3323
5.7114,1007,3.2484
5.7157,1004,3.2387
5.7200,0,0.0000
5.7243,0,0.0000
5.7286,1005,3.2419
5.7329,1006,3.2452
5.7372,1004,3.2387
5.7415,0,0.0000
5.7458,3,0.0097
5.7500,1005,3.2419
5.7543,1006,3.2452
5.7586,566,1.8258
5.7629,0,0.0000
5.7672,810,2.6129
5.7715,1006,3.2452
5.7758,1006,3.2452
5.7800,0,0.0000
5.7844,0,0.0000
5.7887,1006,3.2452
5.7929,1006,3.2452
5.7972,1005,3.2419
5.8017,0,0.0000
5.8059,140,0.4516
5.8102,1005,3.2419
5.8146,1005,3.2419
5.8188,458,1.4774
5.8232,0,0.0000
5.8275,1002,3.2323
5.8318,1006,3.2452
5.8361,1004,3.2387
5.8403,0,0.0000
5.8446,0,0.0000
5.8489,1006,3.2452
5.8532,1006,3.2452
5.8575,999,3.2226
5.8618,0,0.0000
5.8660,193,0.6226
5.8704,1006,3.2452
5.8746,1006,3.2452
5.8789,322,1.0387
5.8832,0,0.0000
5.8875,1006,3.2452
5.8918,1006,3.2452
5.8961,1005,3.2419
5.9004,0,0.0000
5.9047,0,0.0000
5.9090,1006,3.2452
5.9133,1006,3.2452
5.9175,1000,3.2258
5.9218,0,0.0000
5.9261,237,0.7645
5.9304,1005,3.2419
5.9347,1006,3.2452
5.9390,224,0.7226
5.9433,0,0.0000
5.9476,1004,3.2387
5.9519,1005,3.2419
5.9561,1005,3.2419
5.9604,0,0.0000
5.9647,0,0.0000
5.9690,1005,3.2419
5.9733,1006,3.2452
5.9776,930,3.0000
5.9819,0,0.0000
5.9861,204,0.6581
5.9904,1007,3.2484
5.9948,1005,3.2419
5.9990,80,0.2581
6.0033,0,0.0000
6.0076,1004,3.2387
6.0119,1006,3.2452
6.0162,1005,3.2419
6.0205,0,0.0000
6.0248,0,0.0000
6.0290,1005,3.2419
6.0334,1005,3.2419
6.0376,783,2.5258
6.0420,0,0.0000
6.0462,234,0.7548
6.0505,1005,3.2419
6.0548,1006,3.2452
6.0591,0,0.0000
6.0634,0,0.0000
6.0677,1005,3.2419
6.0720,1006,3.2452
6.0763,1003,3.2355
6.0806,0,0.0000
6.0849,0,0.0000
6.0892,1006,3.2452
6.0935,1005,3.2419
6.0977,802,2.5871
6.1021,0,0.0000
6.1063,402,1.2968
6.1106,1005,3.2419
6.1149,1005,3.2419
6.1192,0,0.0000
6.1235,0,0.0000
6.1278,1004,3.2387
6.1320,1005,3.2419
6.1364,1005,3.2419
6.1406,0,0.0000
6.1449,0,0.0000
6.1492,1005,3.2419
6.1535,1006,3.2452
6.1578,720,2.3226
6.1621,0,0.0000
6.1663,449,1.4484
6.1706,1006,3.2452
6.1749,1006,3.2452
6.1792,0,0.0000
6.1835,0,0.0000
6.1878,1006,3.2452
6.1921,1005,3.2419
6.1964,1005,3.2419
6.2007,0,0.0000
6.2049,0,0.0000
6.2092,1006,3.2452
6.2135,1004,3.2387
6.2178,693,2.2355
6.2221,0,0.0000
6.2264,521,1.6806
6.2307,1006,3.2452
6.2350,1004,3.2387
6.2393,0,0.0000
6.2436,0,0.0000
6.2479,1006,3.2452
6.2522,1006,3.2452
6.2565,1005,3.2419
6.2608,0,0.0000
6.2651,95,0.3065
6.2694,1005,3.2419
6.2736,1006,3.2452
6.2779,698,2.2516
6.2822,0,0.0000
6.2865,683,2.2032
6.2908,1007,3.2484
6.2951,1006,3.2452
6.2994,0,0.0000
6.3036,0,0.0000
6.3079,1005,3.2419
6.3122,1005,3.2419
6.3165,1003,3.2355
6.3208,0,0.0000
6.3251,0,0.0000
6.3294,1004,3.2387
6.3337,1006,3.2452
6.3379,630,2.0323
6.3422,0,0.0000
6.3465,813,2.6226
6.3508,1007,3.2484
6.3551,1006,3.2452
6.3594,0,0.0000
6.3636,0,0.0000
6.3679,1004,3.2387
6.3722,1004,3.2387
6.3765,1004,3.2387
6.3808,0,0.0000
6.3851,305,0.9839
6.3894,1007,3.2484
6.3937,1006,3.2452
6.3979,772,2.4903
6.4022,0,0.0000
6.4065,1006,3.2452
6.4108,1005,3.2419
6.4151,1006,3.2452
6.4193,0,0.0000
6.4236,0,0.0000
6.4279,1005,3.2419
6.4322,1004,3.2387
6.4365,1005,3.2419
6.4408,0,0.0000
6.4451,57,0.1839
6.4494,1006,3.2452
6.4537,1006,3.2452
6.4579,519,1.6742
6.4622,0,0.0000
6.4665,810,2.6129
6.4708,1006,3.2452
6.4751,1004,3.2387
6.4794,0,0.0000
6.4836,0,0.0000
6.4880,1004,3.2387
6.4922,1006,3.2452
6.4965,1002,3.2323
6.5008,0,0.0000
6.5051,24,0.0774
6.5094,1005,3.2419
6.5136,1006,3.2452
6.5179,507,1.6355
6.5222,0,0.0000
6.5265,855,2.7581
6.5309,1007,3.2484
6.5351,1006,3.2452
6.5394,0,0.0000
6.5437,0,0.0000
6.5480,1006,3.2452
6.5523,1005,3.2419
6.5566,1000,3.2258
6.5609,0,0.0000
6.5652,112,0.3613
6.5695,1007,3.2484
6.5738,1006,3.2452
6.5780,380,1.2258
6.5823,0,0.0000
6.5866,950,3.0645
6.5909,1005,3.2419
6.5952,1006,3.2452
6.5995,0,0.0000
6.6037,0,0.0000
6.6080,1006,3.2452
6.6123,1005,3.2419
6.6166,1003,3.2355
6.6209,0,0.0000
6.6251,222,0.7161
6.6294,1004,3.2387
6.6337,1005,3.2419
6.6380,447,1.4419
6.6423,0,0.0000
6.6466,1002,3.2323
6.6508,1007,3.2484
6.6551,1006,3.2452
6.6594,0,0.0000
6.6637,0,0.0000
6.6680,1006,3.2452
6.6722,1004,3.2387
6.6765,1003,3.2355
6.6808,0,0.0000
6.6851,146,0.4710
6.6894,1005,3.2419
6.6937,1006,3.2452
6.6980,403,1.3000
6.7022,0,0.0000
6.7065,987,3.1839
6.7108,1006,3.2452
6.7151,1005,3.2419
6.7194,0,0.0000
6.7236,0,0.0000
6.7279,1004,3.2387
6.7322,1006,3.2452
6.7365,1000,3.2258
6.7408,0,0.0000
6.7450,92,0.2968
6.7493,1006,3.2452
6.7536,1006,3.2452
6.7579,174,0.5613
6.7622,0,0.0000
6.7664,862,2.7806
6.7707,1003,3.2355
6.7750,1006,3.2452
6.7793,0,0.0000
6.7835,0,0.0000
6.7878,1006,3.2452
6.7921,1002,3.2323
6.7964,996,3.2129
6.8007,0,0.0000
6.8050,85,0.2742
6.8093,1004,3.2387
6.8136,1005,3.2419
6.8178,309,0.9968
6.8221,0,0.0000
6.8264,919,2.9645
6.8307,1006,3.2452
6.8350,1005,3.2419
6.8393,0,0.0000
6.8436,0,0.0000
6.8479,1006,3.2452
6.8522,1006,3.2452
6.8565,944,3.0452
6.8607,0,0.0000
6.8650,146,0.4710
6.8693,1005,3.2419
6.8736,1006,3.2452
6.8779,269,0.8677
6.8822,0,0.0000
6.8864,1000,3.2258
6.8908,1005,3.2419
6.8950,1005,3.2419
6.8993,0,0.0000
6.9036,0,0.0000
6.9079,1005,3.2419
6.9122,1006,3.2452
6.9165,945,3.0484
6.9208,0,0.0000
6.9251,213,0.6871
6.9294,1004,3.2387
6.9336,1005,3.2419
6.9379,202,0.6516
6.9423,0,0.0000
6.9465,1000,3.2258
6.9508,1007,3.2484
6.9551,1006,3.2452
6.9594,0,0.0000
6.9637,0,0.0000
6.9680,1007,3.2484
6.9723,1005,3.2419
6.9766,880,2.8387
6.9809,0,0.0000
6.9852,309,0.9968
6.9894,1005,3.2419
6.9937,1006,3.2452
6.9980,0,0.0000
7.0023,0,0.0000
7.0066,1005,3.2419
7.0109,1007,3.2484
7.0151,1005,3.2419
7.0195,0,0.0000
7.0237,0,0.0000
7.0280,1006,3.2452
7.0323,1004,3.2387
7.0366,823,2.6548
7.0409,0,0.0000
7.0452,379,1.2226
7.0495,1006,3.2452
7.0538,1004,3.2387
7.0581,0,0.0000
7.0624,0,0.0000
7.0667,1006,3.2452
7.0710,1005,3.2419
7.0752,1004,3.2387
7.0795,0,0.0000
7.0838,0,0.0000
7.0881,1004,3.2387
7.0924,1007,3.2484
7.0967,796,2.5677
7.1010,0,0.0000
7.1052,724,2.3355
7.1095,1004,3.2387
7.1138,1006,3.2452
7.1181,91,0.2935
7.1224,0,0.0000
7.1267,1005,3.2419
7.1310,1005,3.2419
7.1352,1006,3.2452
7.1395,0,0.0000
7.1439,0,0.0000
7.1481,1005,3.2419
7.1524,1006,3.2452
7.1567,860,2.7742
7.1610,0,0.0000
7.1653,507,1.6355
7.1695,1005,3.2419
7.1738,1005,3.2419
7.1781,0,0.0000
7.1824,0,0.0000
7.1867,1006,3.2452
7.1909,1006,3.2452
7.1953,1006,3.2452
7.1995,0,0.0000
7.2038,76,0.2452
7.2081,1006,3.2452
7.2124,1005,3.2419
7.2167,879,2.8355
7.2210,0,0.0000
7.2253,999,3.2226
7.2295,1003,3.2355
7.2338,1005,3.2419
7.2381,108,0.3484
7.2424,0,0.0000
7.2467,1005,3.2419
7.2510,1005,3.2419
7.2553,1003,3.2355
7.2595,0,0.0000
7.2638,0,0.0000
7.2681,1006,3.2452
7.2724,1004,3.2387
7.2767,815,2.6290
7.2810,0,0.0000
7.2852,574,1.8516
7.2895,1004,3.2387
7.2939,1006,3.2452
7.2981,0,0.0000
7.3024,0,0.0000
7.3067,1005,3.2419
7.3110,1005,3.2419
7.3153,1005,3.2419
7.3195,0,0.0000
7.3238,0,0.0000
7.3281,1005,3.2419
7.3324,1003,3.2355
7.3367,787,2.5387
7.3410,0,0.0000
7.3452,640,2.0645
7.3495,1004,3.2387
7.3538,1005,3.2419
7.3581,0,0.0000
7.3624,0,0.0000
7.3666,1006,3.2452
7.3709,1006,3.2452
7.3752,1006,3.2452
7.3795,0,0.0000
7.3837,0,0.0000
7.3880,1004,3.2387
7.3923,1005,3.2419
7.3970,462,1.4903
7.4014,0,0.0000
7.4057,945,3.0484
7.4100,1004,3.2387
7.4143,1006,3.2452
7.4185,0,0.0000
7.4228,0,0.0000
7.4271,1004,3.2387
7.4314,1006,3.2452
7.4357,1002,3.2323
7.4400,0,0.0000
7.4443,143,0.4613
7.4486,1005,3.2419
7.4529,1005,3.2419
7.4571,389,1.2548
7.4615,0,0.0000
7.4657,969,3.1258
7.4700,1006,3.2452
7.4743,1006,3.2452
7.4786,0,0.0000
7.4829,0,0.0000
7.4872,1006,3.2452
7.4915,1005,3.2419
7.4958,987,3.1839
7.5000,0,0.0000
7.5043,116,0.3742
7.5086,1006,3.2452
7.5129,1005,3.2419
7.5172,237,0.7645
7.5214,0,0.0000
7.5257,874,2.8194
7.5300,1006,3.2452
7.5342,1006,3.2452
7.5385,0,0.0000
7.5428,0,0.0000
7.5471,1006,3.2452
7.5514,1007,3.2484
7.5557,983,3.1710
7.5600,0,0.0000
7.5643,106,0.3419
7.5685,1006,3.2452
7.5728,1005,3.2419
7.5771,209,0.6742
7.5814,0,0.0000
7.5857,934,3.0129
7.5900,1005,3.2419
7.5943,1004,3.2387
7.5986,0,0.0000
7.6029,0,0.0000
7.6072,1006,3.2452
7.6115,1006,3.2452
7.6157,954,3.0774
7.6200,0,0.0000
7.6243,163,0.5258
7.6286,1006,3.2452
7.6329,1005,3.2419
7.6372,54,0.1742
7.6415,0,0.0000
7.6458,988,3.1871
7.6501,1006,3.2452
7.6544,1006,3.2452
7.6587,0,0.0000
7.6630,0,0.0000
7.6673,1006,3.2452
7.6715,1005,3.2419
7.6758,932,3.0065
7.6801,0,0.0000
7.6844,361,1.1645
7.6887,1005,3.2419
7.6930,1005,3.2419
7.6973,131,0.4226
7.7017,0,0.0000
7.7059,1005,3.2419
7.7102,1006,3.2452
7.7145,1003,3.2355
7.7188,0,0.0000
7.7231,0,0.0000
7.7274,1007,3.2484
7.7316,1005,3.2419
7.7359,874,2.8194
7.7403,0,0.0000
7.7445,411,1.3258
7.7488,1006,3.2452
7.7532,1006,3.2452
7.7574,0,0.0000
7.7617,0,0.0000
7.7660,1005,3.2419
7.7703,1007,3.2484
7.7746,1006,3.2452
7.7789,0,0.0000
7.7831,0,0.0000
7.7874,1006,3.2452
7.7917,1005,3.2419
7.7960,761,2.4548
7.8003,0,0.0000
7.8046,413,1.3323
7.8089,1005,3.2419
7.8132,1006,3.2452
7.8175,0,0.0000
7.8218,0,0.0000
7.8260,1006,3.2452
7.8303,1006,3.2452
7.8346,1006,3.2452
7.8389,0,0.0000
7.8432,0,0.0000
7.8475,1004,3.2387
7.8518,1006,3.2452
7.8561,755,2.4355
7.8603,0,0.0000
7.8646,510,1.6452
7.8689,1003,3.2355
7.8732,1003,3.2355
7.8775,0,0.0000
7.8817,0,0.0000
7.8860,1006,3.2452
7.8903,1004,3.2387
7.8946,1004,3.2387
7.8989,0,0.0000
7.9032,0,0.0000
7.9074,1005,3.2419
7.9117,1006,3.2452
7.9160,788,2.5419
7.9203,0,0.0000
7.9246,616,1.9871
7.9289,1004,3.2387
7.9331,1006,3.2452
7.9374,0,0.0000
7.9417,0,0.0000
7.9460,1006,3.2452
7.9503,1000,3.2258
7.9546,1004,3.2387
7.9594,0,0.0000
7.9638,176,0.5677
7.9681,1005,3.2419
7.9724,1005,3.2419
7.9767,389,1.2548
7.9810,0,0.0000
7.9854,1006,3.2452
7.9897,1006,3.2452
7.9940,1006,3.2452
7.9983,0,0.0000
8.0026,0,0.0000
8.0069,1005,3.2419
8.0112,1006,3.2452
8.0155,867,2.7968
8.0198,0,0.0000
8.0240,269,0.8677
8.0284,1006,3.2452
8.0327,1006,3.2452
8.0369,74,0.2387
8.0412,0,0.0000
8.0456,1005,3.2419
8.0499,1006,3.2452
8.0542,1006,3.2452
8.0585,0,0.0000
8.0627,0,0.0000
8.0670,1006,3.2452
8.0712,1006,3.2452
8.0755,964,3.1097
8.0797,0,0.0000
8.0840,279,0.9000
8.0883,1005,3.2419
8.0925,1005,3.2419
8.0967,182,0.5871
8.1010,0,0.0000
8.1053,1005,3.2419
8.1096,1004,3.2387
8.1138,1005,3.2419
8.1180,0,0.0000
8.1223,0,0.0000
8.1265,1006,3.2452
8.1308,1006,3.2452
8.1350,998,3.2194
8.1393,0,0.0000
8.1435,94,0.3032
8.1478,1007,3.2484
8.1521,1005,3.2419
8.1563,449,1.4484
8.1606,0,0.0000
8.1649,953,3.0742
8.1692,1006,3.2452
8.1734,1006,3.2452
8.1777,0,0.0000
8.1820,0,0.0000
8.1863,1006,3.2452
8.1906,1006,3.2452
8.1949,1004,3.2387
8.1991,0,0.0000
8.2034,119,0.3839
8.2077,1005,3.2419
8.2120,1005,3.2419
8.2163,356,1.1484
8.2206,0,0.0000
8.2249,908,2.9290
8.2292,1005,3.2419
8.2335,1006,3.2452
8.2377,0,0.0000
8.2420,0,0.0000
8.2463,1004,3.2387
8.2506,1005,3.2419
8.2549,1001,3.2290
8.2592,0,0.0000
8.2635,301,0.9710
8.2678,1000,3.2258
8.2720,1003,3.2355
8.2763,414,1.3355
8.2806,0,0.0000
8.2849,984,3.1742
8.2892,1007,3.2484
8.2935,1005,3.2419
8.2978,0,0.0000
8.3021,0,0.0000
8.3064,1005,3.2419
8.3107,1005,3.2419
8.3150,981,3.1645
8.3193,0,0.0000
8.3235,149,0.4806
8.3278,1006,3.2452
8.3321,1007,3.2484
8.3364,174,0.5613
8.3407,0,0.0000
8.3450,1006,3.2452
8.3492,1004,3.2387
8.3535,1006,3.2452
8.3578,0,0.0000
8.3621,0,0.0000
8.3663,1006,3.2452
8.3706,1007,3.2484
8.3749,994,3.2065
8.3791,0,0.0000
8.3834,100,0.3226
8.3876,1004,3.2387
8.3919,1007,3.2484
8.3962,302,0.9742
8.4005,0,0.0000
8.4047,866,2.7935
8.4090,1006,3.2452
8.4133,1004,3.2387
8.4175,0,0.0000
8.4217,0,0.0000
8.4260,1006,3.2452
8.4303,1005,3.2419
8.4345,1004,3.2387
8.4388,0,0.0000
8.4430,0,0.0000
8.4473,1006,3.2452
8.4515,1006,3.2452
8.4561,373,1.2032
8.4605,0,0.0000
8.4648,987,3.1839
8.4691,1006,3.2452
8.4734,1004,3.2387
8.4777,0,0.0000
8.4823,0,0.0000
8.4866,1005,3.2419
8.4909,1006,3.2452
8.4951,876,2.8258
8.4995,0,0.0000
8.5037,390,1.2581
8.5081,1006,3.2452
8.5123,1005,3.2419
8.5166,0,0.0000
8.5209,0,0.0000
8.5252,1006,3.2452
8.5295,1006,3.2452
8.5338,1005,3.2419
8.5380,0,0.0000
8.5423,0,0.0000
8.5466,1005,3.2419
8.5509,1005,3.2419
8.5552,740,2.3871
8.5595,0,0.0000
8.5637,361,1.1645
8.5680,1005,3.2419
8.5722,1005,3.2419
8.5765,2,0.0065
8.5807,0,0.0000
8.5850,1005,3.2419
8.5892,1005,3.2419
8.5935,1006,3.2452
8.5977,0,0.0000
8.6020,0,0.0000
8.6063,1007,3.2484
8.6107,1006,3.2452
8.6150,798,2.5742
8.6192,0,0.0000
8.6235,246,0.7935
8.6277,1004,3.2387
8.6320,1006,3.2452
8.6362,115,0.3710
8.6405,0,0.0000
8.6447,1004,3.2387
8.6490,1005,3.2419
8.6533,1005,3.2419
8.6576,0,0.0000
8.6619,0,0.0000
8.6661,1007,3.2484
8.6704,1006,3.2452
8.6747,976,3.1484
8.6790,0,0.0000
8.6832,278,0.8968
8.6875,1006,3.2452
8.6918,1006,3.2452
8.6961,267,0.8613
8.7004,0,0.0000
8.7047,1005,3.2419
8.7090,1007,3.2484
8.7133,1005,3.2419
8.7175,0,0.0000
8.7218,0,0.0000
8.7261,1004,3.2387
8.7304,1006,3.2452
8.7347,985,3.1774
8.7390,0,0.0000
8.7433,308,0.9935
8.7475,1004,3.2387
8.7519,1005,3.2419
8.7562,198,0.6387
8.7605,0,0.0000
8.7648,1005,3.2419
8.7691,1004,3.2387
8.7734,1006,3.2452
8.7777,0,0.0000
8.7819,0,0.0000
8.7862,1005,3.2419
8.7905,1003,3.2355
8.7948,900,2.9032
8.7991,0,0.0000
8.8033,378,1.2194
8.8078,1005,3.2419
8.8121,1006,3.2452
8.8163,0,0.0000
8.8206,0,0.0000
8.8249,1005,3.2419
8.8292,1006,3.2452
8.8335,1005,3.2419
8.8378,0,0.0000
8.8421,0,0.0000
8.8463,1005,3.2419
8.8507,1004,3.2387
8.8549,884,2.8516
8.8592,0,0.0000
8.8635,538,1.7355
8.8677,1005,3.2419
8.8720,1006,3.2452
8.8762,27,0.0871
8.8805,0,0.0000
8.8848,1006,3.2452
8.8891,1004,3.2387
8.8933,1005,3.2419
8.8976,0,0.0000
8.9019,0,0.0000
8.9061,1007,3.2484
8.9105,1005,3.2419
8.9147,873,2.8161
8.9190,0,0.0000
8.9233,368,1.1871
8.9275,1005,3.2419
8.9318,1006,3.2452
8.9361,112,0.3613
8.9403,0,0.0000
8.9446,1005,3.2419
8.9489,1006,3.2452
8.9531,1005,3.2419
8.9574,0,0.0000
8.9618,0,0.0000
8.9661,1007,3.2484
8.9704,1006,3.2452
8.9747,870,2.8065
8.9790,0,0.0000
8.9833,468,1.5097
8.9876,1006,3.2452
8.9919,1004,3.2387
8.9962,0,0.0000
9.0005,0,0.0000
9.0048,1006,3.2452
9.0091,1005,3.2419
9.0135,1004,3.2387
9.0177,0,0.0000
9.0220,0,0.0000
9.0263,1006,3.2452
9.0306,1005,3.2419
9.0349,679,2.1903
9.0392,0,0.0000
9.0435,498,1.6065
9.0478,1006,3.2452
9.0521,1006,3.2452
9.0564,0,0.0000
9.0608,0,0.0000
9.0651,1005,3.2419
9.0694,1006,3.2452
9.0736,1004,3.2387
9.0780,0,0.0000
9.0823,0,0.0000
9.0865,1006,3.2452
9.0908,1005,3.2419
9.0951,541,1.7452
9.0994,0,0.0000
9.1037,712,2.2968
9.1080,1006,3.2452
9.1123,1005,3.2419
9.1167,0,0.0000
9.1210,0,0.0000
9.1253,1007,3.2484
9.1296,1006,3.2452
9.1339,1002,3.2323
9.1382,0,0.0000
9.1425,73,0.2355
9.1468,1006,3.2452
9.1511,1005,3.2419
9.1554,261,0.8419
9.1597,0,0.0000
9.1640,909,2.9323
9.1683,1007,3.2484
9.1726,1005,3.2419
9.1769,0,0.0000
9.1812,0,0.0000
9.1855,1006,3.2452
9.1898,1005,3.2419
9.1941,982,3.1677
9.1984,0,0.0000
9.2027,195,0.6290
9.2070,1007,3.2484
9.2113,1006,3.2452
9.2156,209,0.6742
9.2199,0,0.0000
9.2242,1005,3.2419
9.2286,1006,3.2452
9.2329,1005,3.2419
9.2372,0,0.0000
9.2415,0,0.0000
9.2458,1005,3.2419
9.2501,1004,3.2387
9.2544,795,2.5645
9.2587,0,0.0000
9.2634,555,1.7903
9.2677,1006,3.2452
9.2719,1004,3.2387
9.2762,0,0.0000
9.2805,0,0.0000
9.2848,1004,3.2387
9.2890,1006,3.2452
9.2933,1005,3.2419
9.2975,0,0.0000
9.3018,0,0.0000
9.3061,1003,3.2355
9.3104,1005,3.2419
9.3146,682,2.2000
9.3189,0,0.0000
9.3232,558,1.8000
9.3275,1005,3.2419
9.3317,1006,3.2452
9.3360,0,0.0000
9.3403,0,0.0000
9.3445,1005,3.2419
9.3488,1004,3.2387
9.3531,1005,3.2419
9.3573,0,0.0000
9.3616,0,0.0000
9.3659,1006,3.2452
9.3702,1006,3.2452
9.3745,693,2.2355
9.3788,0,0.0000
9.3831,516,1.6645
9.3875,1004,3.2387
9.3918,1005,3.2419
9.3961,0,0.0000
9.4004,0,0.0000
9.4047,1005,3.2419
9.4090,1006,3.2452
9.4133,1004,3.2387
9.4176,0,0.0000
9.4219,0,0.0000
9.4262,1006,3.2452
9.4305,1006,3.2452
9.4348,558,1.8000
9.4391,0,0.0000
9.4434,753,2.4290
9.4477,1005,3.2419
9.4520,1006,3.2452
9.4563,0,0.0000
9.4606,0,0.0000
9.4649,1006,3.2452
9.4692,1005,3.2419
9.4735,1004,3.2387
9.4778,0,0.0000
9.4821,99,0.3194
9.4864,1006,3.2452
9.4907,1005,3.2419
9.4950,381,1.2290
9.4993,0,0.0000
9.5036,1000,3.2258
9.5079,1007,3.2484
9.5122,1003,3.2355
9.5165,0,0.0000
9.5208,0,0.0000
9.5251,1004,3.2387
9.5295,1006,3.2452
9.5338,996,3.2129
9.5380,0,0.0000
9.5424,291,0.9387
9.5467,1005,3.2419
9.5510,1005,3.2419
9.5554,149,0.4806
9.5597,0,0.0000
9.5640,1005,3.2419
9.5684,1005,3.2419
9.5727,1005,3.2419
9.5770,0,0.0000
9.5813,0,0.0000
9.5856,1005,3.2419
9.5899,1006,3.2452
9.5942,804,2.5935
9.5985,0,0.0000
9.6028,476,1.5355
9.6071,1005,3.2419
9.6114,1003,3.2355
9.6157,0,0.0000
9.6200,0,0.0000
9.6244,1003,3.2355
9.6287,1006,3.2452
9.6330,1005,3.2419
9.6373,0,0.0000
9.6415,0,0.0000
9.6458,1006,3.2452
9.6501,1004,3.2387
9.6544,627,2.0226
9.6586,0,0.0000
9.6629,606,1.9548
9.6672,1004,3.2387
9.6715,1005,3.2419
9.6758,0,0.0000
9.6800,0,0.0000
9.6843,1004,3.2387
9.6886,1006,3.2452
9.6929,1004,3.2387
9.6971,0,0.0000
9.7014,0,0.0000
9.7057,1006,3.2452
9.7100,1004,3.2387
9.7142,748,2.4129
9.7185,0,0.0000
9.7228,604,1.9484
9.7271,1004,3.2387
9.7313,1003,3.2355
9.7356,0,0.0000
9.7399,0,0.0000
9.7442,1005,3.2419
9.7485,1006,3.2452
9.7528,1006,3.2452
9.7570,0,0.0000
9.7614,0,0.0000
9.7656,1005,3.2419
9.7699,1006,3.2452
9.7742,736,2.3742
9.7785,0,0.0000
9.7828,631,2.0355
9.7871,1005,3.2419
9.7914,1005,3.2419
9.7957,0,0.0000
9.8000,0,0.0000
9.8042,1005,3.2419
9.8085,1004,3.2387
9.8128,1005,3.2419
9.8171,0,0.0000
9.8214,0,0.0000
9.8257,1006,3.2452
9.8300,1006,3.2452
9.8343,581,1.8742
9.8386,0,0.0000
9.8429,653,2.1065
9.8472,1006,3.2452
9.8515,1006,3.2452
9.8558,0,0.0000
9.8601,0,0.0000
9.8643,1006,3.2452
9.8686,1006,3.2452
9.8729,1003,3.2355
9.8772,0,0.0000
9.8815,0,0.0000
9.8858,1005,3.2419
9.8901,1004,3.2387
9.8944,516,1.6645
9.8987,0,0.0000
9.9030,761,2.4548
9.9073,1005,3.2419
9.9116,1006,3.2452
9.9159,0,0.0000
9.9202,0,0.0000
9.9245,1005,3.2419
9.9287,1006,3.2452
9.9330,1003,3.2355
9.9373,0,0.0000
9.9416,65,0.2097
9.9459,1005,3.2419
9.9502,1006,3.2452
9.9545,465,1.5000
9.9587,0,0.0000
9.9630,867,2.7968
9.9673,1005,3.2419
9.9716,1005,3.2419
9.9759,0,0.0000
9.9802,0,0.0000
9.9845,1006,3.2452
9.9887,1006,3.2452
9.9930,1003,3.2355
9.9973,0,0.0000
