time_s,adc_raw,voltage
0.0000,592,1.9097
0.0198,625,2.0161
0.0242,538,1.7355
0.0286,501,1.6161
0.0329,641,2.0677
0.0373,684,2.2065
0.0417,585,1.8871
0.0461,516,1.6645
0.0505,500,1.6129
0.0549,715,2.3065
0.0592,654,2.1097
0.0636,549,1.7710
0.0679,503,1.6226
0.0723,604,1.9484
0.0767,710,2.2903
0.0811,605,1.9516
0.0857,519,1.6742
0.0902,496,1.6000
0.0947,713,2.3000
0.0994,646,2.0839
0.1041,541,1.7452
0.1089,499,1.6097
0.1135,669,2.1581
0.1179,673,2.1710
0.1232,555,1.7903
0.1276,504,1.6258
0.1319,568,1.8323
0.1362,710,2.2903
0.1406,613,1.9774
0.1451,526,1.6968
0.1496,497,1.6032
0.1539,688,2.2194
0.1582,674,2.1742
0.1623,574,1.8516
0.1665,513,1.6548
0.1707,503,1.6226
0.1749,700,2.2581
0.1791,643,2.0742
0.1833,551,1.7774
0.1876,505,1.6290
0.1921,598,1.9290
0.1966,715,2.3065
0.2011,605,1.9516
0.2053,524,1.6903
0.2095,497,1.6032
0.2137,669,2.1581
0.2179,667,2.1516
0.2221,572,1.8452
0.2264,512,1.6516
0.2306,500,1.6129
0.2347,684,2.2065
0.2389,635,2.0484
0.2432,550,1.7742
0.2474,505,1.6290
0.2515,538,1.7355
0.2557,667,2.1516
0.2600,598,1.9290
0.2642,532,1.7161
0.2684,503,1.6226
0.2726,605,1.9516
0.2768,655,2.1129
0.2810,579,1.8677
0.2852,520,1.6774
0.2894,501,1.6161
0.2936,684,2.2065
0.2978,680,2.1935
0.3020,578,1.8645
0.3062,513,1.6548
0.3104,499,1.6097
0.3146,694,2.2387
0.3188,647,2.0871
0.3230,556,1.7935
0.3272,507,1.6355
0.3314,531,1.7129
0.3356,676,2.1806
0.3398,608,1.9613
0.3440,535,1.7258
0.3482,502,1.6194
0.3524,617,1.9903
0.3566,698,2.2516
0.3608,603,1.9452
0.3650,526,1.6968
0.3692,499,1.6097
0.3733,657,2.1194
0.3775,671,2.1645
0.3817,579,1.8677
0.3859,516,1.6645
0.3901,499,1.6097
0.3942,700,2.2581
0.3984,661,2.1323
0.4026,564,1.8194
0.4068,509,1.6419
0.4110,509,1.6419
0.4151,716,2.3097
0.4193,645,2.0806
0.4235,551,1.7774
0.4277,504,1.6258
0.4319,560,1.8065
0.4360,658,2.1226
0.4402,590,1.9032
0.4444,529,1.7065
0.4486,504,1.6258
0.4528,559,1.8032
0.4569,571,1.8419
0.4611,538,1.7355
0.4653,513,1.6548
0.4695,505,1.6290
0.4737,693,2.2355
0.4778,677,2.1839
0.4820,577,1.8613
0.4862,513,1.6548
0.4904,498,1.6065
0.4946,690,2.2258
0.4987,640,2.0645
0.5029,553,1.7839
0.5071,504,1.6258
0.5113,537,1.7323
0.5155,720,2.3226
0.5196,635,2.0484
0.5239,542,1.7484
0.5280,502,1.6194
0.5322,621,2.0032
0.5364,727,2.3452
0.5406,622,2.0065
0.5448,531,1.7129
0.5490,497,1.6032
0.5531,642,2.0710
0.5573,661,2.1323
0.5615,578,1.8645
0.5657,517,1.6677
0.5699,499,1.6097
0.5740,685,2.2097
0.5782,657,2.1194
0.5824,564,1.8194
0.5866,510,1.6452
0.5908,507,1.6355
0.5949,699,2.2548
0.5991,634,2.0452
0.6033,548,1.7677
0.6075,504,1.6258
0.6116,565,1.8226
0.6158,701,2.2613
0.6200,616,1.9871
0.6242,534,1.7226
0.6284,500,1.6129
0.6325,605,1.9516
0.6367,655,2.1129
0.6409,578,1.8645
0.6451,520,1.6774
0.6493,501,1.6161
0.6535,650,2.0968
0.6576,647,2.0871
0.6618,565,1.8226
0.6660,514,1.6581
0.6702,500,1.6129
0.6743,685,2.2097
0.6785,642,2.0710
0.6827,555,1.7903
0.6869,508,1.6387
0.6911,524,1.6903
0.6953,709,2.2871
0.6994,634,2.0452
0.7036,544,1.7548
0.7078,503,1.6226
0.7120,575,1.8548
0.7161,658,2.1226
0.7203,586,1.8903
0.7245,526,1.6968
0.7287,501,1.6161
0.7329,591,1.9065
0.7370,605,1.9516
0.7412,552,1.7806
0.7454,514,1.6581
0.7496,503,1.6226
0.7538,606,1.9548
0.7579,589,1.9000
0.7621,541,1.7452
0.7663,509,1.6419
0.7705,510,1.6452
0.7746,685,2.2097
0.7788,629,2.0290
0.7830,545,1.7581
0.7872,504,1.6258
0.7914,556,1.7935
0.7955,712,2.2968
0.7997,626,2.0194
0.8039,538,1.7355
0.8081,501,1.6161
0.8123,628,2.0258
0.8164,706,2.2774
0.8206,606,1.9548
0.8248,527,1.7000
0.8290,499,1.6097
0.8332,675,2.1774
0.8373,684,2.2065
0.8415,582,1.8774
0.8457,516,1.6645
0.8499,498,1.6065
0.8541,692,2.2323
0.8582,658,2.1226
0.8624,562,1.8129
0.8666,508,1.6387
0.8708,513,1.6548
0.8750,696,2.2452
0.8791,631,2.0355
0.8833,545,1.7581
0.8875,504,1.6258
0.8917,576,1.8581
0.8959,691,2.2290
0.9001,607,1.9581
0.9042,530,1.7097
0.9084,500,1.6129
0.9126,590,1.9032
0.9168,615,1.9839
0.9210,558,1.8000
0.9251,516,1.6645
0.9293,502,1.6194
0.9335,630,2.0323
0.9377,617,1.9903
0.9418,552,1.7806
0.9460,511,1.6484
0.9502,505,1.6290
0.9544,667,2.1516
0.9586,622,2.0065
0.9627,546,1.7613
0.9669,507,1.6355
0.9711,531,1.7129
0.9754,659,2.1258
0.9796,595,1.9194
0.9839,529,1.7065
0.9883,502,1.6194
0.9926,646,2.0839
0.9970,681,2.1968
1.0013,583,1.8806
1.0056,515,1.6613
1.0100,499,1.6097
1.0143,622,2.0065
1.0186,589,1.9000
1.0229,533,1.7194
1.0273,505,1.6290
1.0316,586,1.8903
1.0359,705,2.2742
1.0403,607,1.9581
1.0446,526,1.6968
1.0489,498,1.6065
1.0533,666,2.1484
1.0576,659,2.1258
1.0619,565,1.8226
1.0662,511,1.6484
1.0706,510,1.6452
1.0749,709,2.2871
1.0793,629,2.0290
1.0837,538,1.7355
1.0880,500,1.6129
1.0923,629,2.0290
1.0966,683,2.2032
1.1008,589,1.9000
1.1051,519,1.6742
1.1094,498,1.6065
1.1137,686,2.2129
1.1180,656,2.1161
1.1223,561,1.8097
1.1266,509,1.6419
1.1309,526,1.6968
1.1352,698,2.2516
1.1395,619,1.9968
1.1438,536,1.7290
1.1481,501,1.6161
1.1524,628,2.0258
1.1566,676,2.1806
1.1609,584,1.8839
1.1652,517,1.6677
1.1695,498,1.6065
1.1738,681,2.1968
1.1781,646,2.0839
1.1825,552,1.7806
1.1868,504,1.6258
1.1911,550,1.7742
1.1955,686,2.2129
1.1998,605,1.9516
1.2041,531,1.7129
1.2085,502,1.6194
1.2128,624,2.0129
1.2171,631,2.0355
1.2215,558,1.8000
1.2258,511,1.6484
1.2301,504,1.6258
1.2344,630,2.0323
1.2388,588,1.8968
1.2431,531,1.7129
1.2474,505,1.6290
1.2518,574,1.8516
1.2561,630,2.0323
1.2605,566,1.8258
1.2648,518,1.6710
1.2691,501,1.6161
1.2734,676,2.1806
1.2778,654,2.1097
1.2821,559,1.8032
1.2864,508,1.6387
1.2907,523,1.6871
1.2950,714,2.3032
1.2993,632,2.0387
1.3036,539,1.7387
1.3079,500,1.6129
1.3122,627,2.0226
1.3165,680,2.1935
1.3208,586,1.8903
1.3251,518,1.6710
1.3294,498,1.6065
1.3337,701,2.2613
1.3380,665,2.1452
1.3423,563,1.8161
1.3465,506,1.6323
1.3508,531,1.7129
1.3551,712,2.2968
1.3594,626,2.0194
1.3637,537,1.7323
1.3680,501,1.6161
1.3723,638,2.0581
1.3766,687,2.2161
1.3809,589,1.9000
1.3853,517,1.6677
1.3896,497,1.6032
1.3940,644,2.0774
1.3983,607,1.9581
1.4027,539,1.7387
1.4070,506,1.6323
1.4113,550,1.7742
1.4156,619,1.9968
1.4200,563,1.8161
1.4243,519,1.6742
1.4286,503,1.6226
1.4330,637,2.0548
1.4373,632,2.0387
1.4416,556,1.7935
1.4460,510,1.6452
1.4503,508,1.6387
1.4546,680,2.1935
1.4589,615,1.9839
1.4633,536,1.7290
1.4676,502,1.6194
1.4719,604,1.9484
1.4763,657,2.1194
1.4806,576,1.8581
1.4849,518,1.6710
1.4892,500,1.6129
1.4936,646,2.0839
1.4979,619,1.9968
1.5022,548,1.7677
1.5064,507,1.6355
1.5107,525,1.6935
1.5150,690,2.2258
1.5193,614,1.9806
1.5236,534,1.7226
1.5279,501,1.6161
1.5322,578,1.8645
1.5365,599,1.9323
1.5408,552,1.7806
1.5451,513,1.6548
1.5494,503,1.6226
1.5537,645,2.0806
1.5579,613,1.9774
1.5622,543,1.7516
1.5665,506,1.6323
1.5708,543,1.7516
1.5751,696,2.2452
1.5794,613,1.9774
1.5837,533,1.7194
1.5880,501,1.6161
1.5923,549,1.7710
1.5966,556,1.7935
1.6010,531,1.7129
1.6053,510,1.6452
1.6096,506,1.6323
1.6140,650,2.0968
1.6183,606,1.9548
1.6227,538,1.7355
1.6270,505,1.6290
1.6313,551,1.7774
1.6357,600,1.9355
1.6400,554,1.7871
1.6443,516,1.6645
1.6487,504,1.6258
1.6530,638,2.0581
1.6573,625,2.0161
1.6616,553,1.7839
1.6660,509,1.6419
1.6703,513,1.6548
1.6746,710,2.2903
1.6790,632,2.0387
1.6833,540,1.7419
1.6876,500,1.6129
1.6919,594,1.9161
1.6963,636,2.0516
1.7005,567,1.8290
1.7048,515,1.6613
1.7091,501,1.6161
1.7134,706,2.2774
1.7177,669,2.1581
1.7220,564,1.8194
1.7263,507,1.6355
1.7306,522,1.6839
1.7349,681,2.1968
1.7392,612,1.9742
1.7435,534,1.7226
1.7478,500,1.6129
1.7521,632,2.0387
1.7564,673,2.1710
1.7607,581,1.8742
1.7649,518,1.6710
1.7692,499,1.6097
1.7735,694,2.2387
1.7778,657,2.1194
1.7821,560,1.8065
1.7864,507,1.6355
1.7907,532,1.7161
1.7950,700,2.2581
1.7994,617,1.9903
1.8037,532,1.7161
1.8080,500,1.6129
1.8123,644,2.0774
1.8167,671,2.1645
1.8210,578,1.8645
1.8253,514,1.6581
1.8296,500,1.6129
1.8340,686,2.2129
1.8384,632,2.0387
1.8427,545,1.7581
1.8470,503,1.6226
1.8519,622,2.0065
1.8562,682,2.2000
1.8606,587,1.8935
1.8649,518,1.6710
1.8692,498,1.6065
1.8736,700,2.2581
1.8779,654,2.1097
1.8822,555,1.7903
1.8865,502,1.6194
1.8909,549,1.7710
1.8952,661,2.1323
1.8995,592,1.9097
1.9039,527,1.7000
1.9081,503,1.6226
1.9124,630,2.0323
1.9167,640,2.0645
1.9210,563,1.8161
1.9253,511,1.6484
1.9296,501,1.6161
1.9339,658,2.1226
1.9382,613,1.9774
1.9425,540,1.7419
1.9468,505,1.6290
1.9511,578,1.8645
1.9554,704,2.2710
1.9597,608,1.9613
1.9640,528,1.7032
1.9683,498,1.6065
1.9726,672,2.1677
1.9769,679,2.1903
1.9812,577,1.8613
1.9855,512,1.6516
1.9898,501,1.6161
1.9941,695,2.2419
1.9984,634,2.0452
2.0027,544,1.7548
2.0070,504,1.6258
2.0113,586,1.8903
2.0156,688,2.2194
2.0199,599,1.9323
2.0242,524,1.6903
2.0284,499,1.6097
2.0327,667,2.1516
2.0370,665,2.1452
2.0413,569,1.8355
2.0456,511,1.6484
2.0499,507,1.6355
2.0542,688,2.2194
2.0585,624,2.0129
2.0628,539,1.7387
2.0671,503,1.6226
2.0714,604,1.9484
2.0757,698,2.2516
2.0800,601,1.9387
2.0843,524,1.6903
2.0886,498,1.6065
2.0928,623,2.0097
2.0971,612,1.9742
2.1015,547,1.7645
2.1058,508,1.6387
2.1101,515,1.6613
2.1145,616,1.9871
2.1188,573,1.8484
2.1231,525,1.6935
2.1275,505,1.6290
2.1318,640,2.0645
2.1361,694,2.2387
2.1405,590,1.9032
2.1448,518,1.6710
2.1491,497,1.6032
2.1534,640,2.0645
2.1578,608,1.9613
2.1621,541,1.7452
2.1664,506,1.6323
2.1708,563,1.8161
2.1751,717,2.3129
2.1794,619,1.9968
2.1837,530,1.7097
2.1881,497,1.6032
2.1924,656,2.1161
2.1967,665,2.1452
2.2012,568,1.8323
2.2056,511,1.6484
2.2100,512,1.6516
2.2147,724,2.3355
2.2193,626,2.0194
2.2237,533,1.7194
2.2280,498,1.6065
2.2324,641,2.0677
2.2368,647,2.0871
2.2411,563,1.8161
2.2456,511,1.6484
2.2501,516,1.6645
2.2544,715,2.3065
2.2600,601,1.9387
2.2644,521,1.6806
2.2689,496,1.6000
2.2733,697,2.2484
2.2778,650,2.0968
2.2823,550,1.7742
2.2867,503,1.6226
2.2912,569,1.8355
2.2956,626,2.0194
2.2998,567,1.8290
2.3040,519,1.6742
2.3082,502,1.6194
2.3124,665,2.1452
2.3165,675,2.1774
2.3207,581,1.8742
2.3249,516,1.6645
2.3291,498,1.6065
2.3332,688,2.2194
2.3374,658,2.1226
2.3416,563,1.8161
2.3457,508,1.6387
2.3499,509,1.6419
2.3541,701,2.2613
2.3583,636,2.0516
2.3624,548,1.7677
2.3666,504,1.6258
2.3708,565,1.8226
2.3749,703,2.2677
2.3791,620,2.0000
2.3836,531,1.7129
2.3878,500,1.6129
2.3919,637,2.0548
2.3961,670,2.1613
2.4003,584,1.8839
2.4045,519,1.6742
2.4087,499,1.6097
2.4128,672,2.1677
2.4170,660,2.1290
2.4211,569,1.8355
2.4253,513,1.6548
2.4295,500,1.6129
2.4336,672,2.1677
2.4378,628,2.0258
2.4420,548,1.7677
2.4461,506,1.6323
2.4503,531,1.7129
2.4545,679,2.1903
2.4587,610,1.9677
2.4628,536,1.7290
2.4670,503,1.6226
2.4712,604,1.9484
2.4753,705,2.2742
2.4795,611,1.9710
2.4836,531,1.7129
2.4878,499,1.6097
2.4920,664,2.1419
2.4961,696,2.2452
2.5003,595,1.9194
2.5045,520,1.6774
2.5086,496,1.6000
2.5128,695,2.2419
2.5170,676,2.1806
2.5211,575,1.8548
2.5253,513,1.6548
2.5294,502,1.6194
2.5336,707,2.2806
2.5378,653,2.1065
2.5419,557,1.7968
2.5461,505,1.6290
2.5503,535,1.7258
2.5545,704,2.2710
2.5587,628,2.0258
2.5628,541,1.7452
2.5670,501,1.6161
2.5712,602,1.9419
2.5753,696,2.2452
2.5795,607,1.9581
2.5836,530,1.7097
2.5878,499,1.6097
2.5920,564,1.8194
2.5961,576,1.8581
2.6003,541,1.7452
2.6045,512,1.6516
2.6086,504,1.6258
2.6128,678,2.1871
2.6170,658,2.1226
2.6211,567,1.8290
2.6253,513,1.6548
2.6294,504,1.6258
2.6336,716,2.3097
2.6378,658,2.1226
2.6419,558,1.8000
2.6461,506,1.6323
2.6504,529,1.7065
2.6546,605,1.9516
2.6588,565,1.8226
2.6629,523,1.6871
2.6671,504,1.6258
2.6713,593,1.9129
2.6754,649,2.0935
2.6796,578,1.8645
2.6838,521,1.6806
2.6882,501,1.6161
2.6924,630,2.0323
2.6966,629,2.0290
2.7007,559,1.8032
2.7049,512,1.6516
2.7091,501,1.6161
2.7133,592,1.9097
2.7174,571,1.8419
2.7216,532,1.7161
2.7257,509,1.6419
2.7299,521,1.6806
2.7341,699,2.2548
2.7382,630,2.0323
2.7424,545,1.7581
2.7465,502,1.6194
2.7509,566,1.8258
2.7551,633,2.0419
2.7593,574,1.8516
2.7635,523,1.6871
2.7676,503,1.6226
2.7718,656,2.1161
2.7759,693,2.2355
2.7801,595,1.9194
2.7843,520,1.6774
2.7884,497,1.6032
2.7926,677,2.1839
2.7968,664,2.1419
2.8012,564,1.8194
2.8054,509,1.6419
2.8096,505,1.6290
2.8138,708,2.2839
2.8179,644,2.0774
2.8221,551,1.7774
2.8263,501,1.6161
2.8304,534,1.7226
2.8346,626,2.0194
2.8388,576,1.8581
2.8429,526,1.6968
2.8471,504,1.6258
2.8515,636,2.0516
2.8558,695,2.2419
2.8600,595,1.9194
2.8641,521,1.6806
2.8683,499,1.6097
2.8725,685,2.2097
2.8766,676,2.1806
2.8808,577,1.8613
2.8849,514,1.6581
2.8891,499,1.6097
2.8932,708,2.2839
2.8974,663,2.1387
2.9016,561,1.8097
2.9058,507,1.6355
2.9100,523,1.6871
2.9142,661,2.1323
2.9183,602,1.9419
2.9225,535,1.7258
2.9267,504,1.6258
2.9308,592,1.9097
2.9350,696,2.2452
2.9392,606,1.9548
2.9433,530,1.7097
2.9475,500,1.6129
2.9521,665,2.1452
2.9563,680,2.1935
2.9604,582,1.8774
2.9646,517,1.6677
2.9688,496,1.6000
2.9729,693,2.2355
2.9771,658,2.1226
2.9813,564,1.8194
2.9854,509,1.6419
2.9896,508,1.6387
2.9938,703,2.2677
2.9980,637,2.0548
3.0023,543,1.7516
3.0067,502,1.6194
3.0110,602,1.9419
3.0153,684,2.2065
3.0196,594,1.9161
3.0240,521,1.6806
3.0283,499,1.6097
3.0326,612,1.9742
3.0369,595,1.9194
3.0412,541,1.7452
3.0455,507,1.6355
3.0498,526,1.6968
3.0541,713,2.3000
3.0584,629,2.0290
3.0627,538,1.7355
3.0670,500,1.6129
3.0713,627,2.0226
3.0756,689,2.2226
3.0799,591,1.9065
3.0842,519,1.6742
3.0885,498,1.6065
3.0927,629,2.0290
3.0970,609,1.9645
3.1015,543,1.7516
3.1057,508,1.6387
3.1100,536,1.7290
3.1143,707,2.2806
3.1185,624,2.0129
3.1228,534,1.7226
3.1271,499,1.6097
3.1314,615,1.9839
3.1356,660,2.1290
3.1399,577,1.8613
3.1442,517,1.6677
3.1484,500,1.6129
3.1527,691,2.2290
3.1569,665,2.1452
3.1612,564,1.8194
3.1655,509,1.6419
3.1697,515,1.6613
3.1740,693,2.2355
3.1783,623,2.0097
3.1826,538,1.7355
3.1868,503,1.6226
3.1911,561,1.8097
3.1953,589,1.9000
3.1996,547,1.7645
3.2039,515,1.6613
3.2082,504,1.6258
3.2125,683,2.2032
3.2171,655,2.1129
3.2214,556,1.7935
3.2256,506,1.6323
3.2299,529,1.7065
3.2341,710,2.2903
3.2384,627,2.0226
3.2427,537,1.7323
3.2470,501,1.6161
3.2512,630,2.0323
3.2555,692,2.2323
3.2599,592,1.9097
3.2642,519,1.6742
3.2684,497,1.6032
3.2727,696,2.2452
3.2769,665,2.1452
3.2812,565,1.8226
3.2854,509,1.6419
3.2897,519,1.6742
3.2940,700,2.2581
3.2986,615,1.9839
3.3029,533,1.7194
3.3072,499,1.6097
3.3115,611,1.9710
3.3158,636,2.0516
3.3200,565,1.8226
3.3243,514,1.6581
3.3286,499,1.6097
3.3329,599,1.9323
3.3371,576,1.8581
3.3414,531,1.7129
3.3457,506,1.6323
3.3500,551,1.7774
3.3547,713,2.3000
3.3590,616,1.9871
3.3632,531,1.7129
3.3675,499,1.6097
3.3718,650,2.0968
3.3760,664,2.1419
3.3803,575,1.8548
3.3846,514,1.6581
3.3888,499,1.6097
3.3931,706,2.2774
3.3973,656,2.1161
3.4016,557,1.7968
3.4059,505,1.6290
3.4101,554,1.7871
3.4144,708,2.2839
3.4187,621,2.0032
3.4229,532,1.7161
3.4272,499,1.6097
3.4315,654,2.1097
3.4357,688,2.2194
3.4400,587,1.8935
3.4443,517,1.6677
3.4486,497,1.6032
3.4528,648,2.0903
3.4571,615,1.9839
3.4617,540,1.7419
3.4660,505,1.6290
3.4703,565,1.8226
3.4746,685,2.2097
3.4788,604,1.9484
3.4831,527,1.7000
3.4874,500,1.6129
3.4917,662,2.1355
3.4959,684,2.2065
3.5002,585,1.8871
3.5045,515,1.6613
3.5088,498,1.6065
3.5131,681,2.1968
3.5173,635,2.0484
3.5216,550,1.7742
3.5259,505,1.6290
3.5302,552,1.7806
3.5344,681,2.1968
3.5387,604,1.9484
3.5432,525,1.6935
3.5475,501,1.6161
3.5518,576,1.8581
3.5560,578,1.8645
3.5603,537,1.7323
3.5646,511,1.6484
3.5689,506,1.6323
3.5732,717,2.3129
3.5774,654,2.1097
3.5817,553,1.7839
3.5859,504,1.6258
3.5903,567,1.8290
3.5945,689,2.2226
3.5988,604,1.9484
3.6031,529,1.7065
3.6073,499,1.6097
3.6116,554,1.7871
3.6159,556,1.7935
3.6202,529,1.7065
3.6247,510,1.6452
3.6290,511,1.6484
3.6333,685,2.2097
3.6376,627,2.0226
3.6418,544,1.7548
3.6461,504,1.6258
3.6504,579,1.8677
3.6546,699,2.2548
3.6589,609,1.9645
3.6632,528,1.7032
3.6674,499,1.6097
3.6717,646,2.0839
3.6759,657,2.1194
3.6802,571,1.8419
3.6844,513,1.6548
3.6887,500,1.6129
3.6934,643,2.0742
3.6978,596,1.9226
3.7020,534,1.7226
3.7066,503,1.6226
3.7113,615,1.9839
3.7155,637,2.0548
3.7198,566,1.8258
3.7240,515,1.6613
3.7283,500,1.6129
3.7326,709,2.2871
3.7368,671,2.1645
3.7411,564,1.8194
3.7453,508,1.6387
3.7496,523,1.6871
3.7539,715,2.3065
3.7582,632,2.0387
3.7625,539,1.7387
3.7667,500,1.6129
3.7710,637,2.0548
3.7753,701,2.2613
3.7796,598,1.9290
3.7839,521,1.6806
3.7881,497,1.6032
3.7924,661,2.1323
3.7967,633,2.0419
3.8009,553,1.7839
3.8052,509,1.6419
3.8095,518,1.6710
3.8138,652,2.1032
3.8180,596,1.9226
3.8223,531,1.7129
3.8265,504,1.6258
3.8308,620,2.0000
3.8351,684,2.2065
3.8393,591,1.9065
3.8436,521,1.6806
3.8478,498,1.6065
3.8521,666,2.1484
3.8564,652,2.1032
3.8606,562,1.8129
3.8649,510,1.6452
3.8693,511,1.6484
3.8736,721,2.3258
3.8779,640,2.0645
3.8821,543,1.7516
3.8864,500,1.6129
3.8906,614,1.9806
3.8949,703,2.2677
3.8992,604,1.9484
3.9034,525,1.6935
3.9078,497,1.6032
3.9121,602,1.9419
3.9165,589,1.9000
3.9208,540,1.7419
3.9250,509,1.6419
3.9293,519,1.6742
3.9336,692,2.2323
3.9379,621,2.0032
3.9422,538,1.7355
3.9465,502,1.6194
3.9507,634,2.0452
3.9551,713,2.3000
3.9594,604,1.9484
3.9637,521,1.6806
3.9680,496,1.6000
3.9723,635,2.0484
3.9766,611,1.9710
3.9809,544,1.7548
3.9852,508,1.6387
3.9894,525,1.6935
3.9937,672,2.1677
3.9980,606,1.9548
4.0023,532,1.7161
4.0066,502,1.6194
4.0109,643,2.0742
4.0152,700,2.2581
4.0195,598,1.9290
4.0237,521,1.6806
4.0280,496,1.6000
4.0322,645,2.0806
4.0365,624,2.0129
4.0408,550,1.7742
4.0451,506,1.6323
4.0493,520,1.6774
4.0536,760,2.4516
4.0578,664,2.1419
4.0621,548,1.7677
4.0664,500,1.6129
4.0707,630,2.0323
4.0749,724,2.3355
4.0792,613,1.9774
4.0835,525,1.6935
4.0877,496,1.6000
4.0920,680,2.1935
4.0963,665,2.1452
4.1005,567,1.8290
4.1048,510,1.6452
4.1092,513,1.6548
4.1135,720,2.3226
4.1178,640,2.0645
4.1221,542,1.7484
4.1264,500,1.6129
4.1307,624,2.0129
4.1350,699,2.2548
4.1393,596,1.9226
4.1436,521,1.6806
4.1479,497,1.6032
4.1522,676,2.1806
4.1564,648,2.0903
4.1608,558,1.8000
4.1651,508,1.6387
4.1694,523,1.6871
4.1737,687,2.2161
4.1780,613,1.9774
4.1823,534,1.7226
4.1866,502,1.6194
4.1909,630,2.0323
4.1952,677,2.1839
4.1995,585,1.8871
4.2039,517,1.6677
4.2082,498,1.6065
4.2125,626,2.0194
4.2168,598,1.9290
4.2211,539,1.7387
4.2254,507,1.6355
4.2297,549,1.7710
4.2340,708,2.2839
4.2382,620,2.0000
4.2425,532,1.7161
4.2468,499,1.6097
4.2511,651,2.1000
4.2553,692,2.2323
4.2596,591,1.9065
4.2639,517,1.6677
4.2682,497,1.6032
4.2725,709,2.2871
4.2768,663,2.1387
4.2810,561,1.8097
4.2853,506,1.6323
4.2896,542,1.7484
4.2939,712,2.2968
4.2988,611,1.9710
4.3030,527,1.7000
4.3073,498,1.6065
4.3117,579,1.8677
4.3160,576,1.8581
4.3202,537,1.7323
4.3246,510,1.6452
4.3288,511,1.6484
4.3331,699,2.2548
4.3374,633,2.0419
4.3417,544,1.7548
4.3460,503,1.6226
4.3502,597,1.9258
4.3545,700,2.2581
4.3588,607,1.9581
4.3630,527,1.7000
4.3674,498,1.6065
4.3717,672,2.1677
4.3759,671,2.1645
4.3802,572,1.8452
4.3845,511,1.6484
4.3888,503,1.6226
4.3930,718,2.3161
4.3973,651,2.1000
4.4015,551,1.7774
4.4058,504,1.6258
4.4100,581,1.8742
4.4142,723,2.3323
4.4185,624,2.0129
4.4227,532,1.7161
4.4270,497,1.6032
4.4312,654,2.1097
4.4355,672,2.1677
4.4398,580,1.8710
4.4440,515,1.6613
4.4483,498,1.6065
4.4525,726,2.3419
4.4568,675,2.1774
4.4610,564,1.8194
4.4652,506,1.6323
4.4695,520,1.6774
4.4738,578,1.8645
4.4780,548,1.7677
4.4822,519,1.6742
4.4865,505,1.6290
4.4907,571,1.8419
4.4950,590,1.9032
4.4992,547,1.7645
4.5035,514,1.6581
4.5077,504,1.6258
4.5121,642,2.0710
4.5163,617,1.9903
4.5206,548,1.7677
4.5249,508,1.6387
4.5292,522,1.6839
4.5334,696,2.2452
4.5377,622,2.0065
4.5420,537,1.7323
4.5462,502,1.6194
4.5505,627,2.0226
4.5548,701,2.2613
4.5591,599,1.9323
4.5633,521,1.6806
4.5676,497,1.6032
4.5719,695,2.2419
4.5762,669,2.1581
4.5805,569,1.8355
4.5847,509,1.6419
4.5890,511,1.6484
4.5933,683,2.2032
4.5976,618,1.9935
4.6018,538,1.7355
4.6061,503,1.6226
4.6104,613,1.9774
4.6147,689,2.2226
4.6189,594,1.9161
4.6232,522,1.6839
4.6275,499,1.6097
4.6319,694,2.2387
4.6362,673,2.1710
4.6405,568,1.8323
4.6449,507,1.6355
4.6492,520,1.6774
4.6535,713,2.3000
4.6578,630,2.0323
4.6622,537,1.7323
4.6665,500,1.6129
4.6708,607,1.9581
4.6752,635,2.0484
4.6795,565,1.8226
4.6838,513,1.6548
4.6881,501,1.6161
4.6925,727,2.3452
4.6968,671,2.1645
4.7011,558,1.8000
4.7054,503,1.6226
4.7098,574,1.8516
4.7142,712,2.2968
4.7186,612,1.9742
4.7229,528,1.7032
4.7272,498,1.6065
4.7314,630,2.0323
4.7357,627,2.0226
4.7400,556,1.7935
4.7443,511,1.6484
4.7486,506,1.6323
4.7529,709,2.2871
4.7572,640,2.0645
4.7615,545,1.7581
4.7658,500,1.6129
4.7701,621,2.0032
4.7744,749,2.4161
4.7787,628,2.0258
4.7830,528,1.7032
4.7872,496,1.6000
4.7915,710,2.2903
4.7958,702,2.2645
4.8001,583,1.8806
4.8044,512,1.6516
4.8087,504,1.6258
4.8130,692,2.2323
4.8173,627,2.0226
4.8216,540,1.7419
4.8260,502,1.6194
4.8303,571,1.8419
4.8346,617,1.9903
4.8390,560,1.8065
4.8433,515,1.6613
4.8476,502,1.6194
4.8519,691,2.2290
4.8563,660,2.1290
4.8606,561,1.8097
4.8649,506,1.6323
4.8693,529,1.7065
4.8736,683,2.2032
4.8779,606,1.9548
4.8823,530,1.7097
4.8866,500,1.6129
4.8909,664,2.1419
4.8952,697,2.2484
4.8996,587,1.8935
4.9039,515,1.6613
4.9083,499,1.6097
4.9126,714,2.3032
4.9169,654,2.1097
4.9213,552,1.7806
4.9256,503,1.6226
4.9299,581,1.8742
4.9342,703,2.2677
4.9384,609,1.9645
4.9427,528,1.7032
4.9470,499,1.6097
4.9513,643,2.0742
4.9556,642,2.0710
4.9599,561,1.8097
4.9642,511,1.6484
4.9685,505,1.6290
4.9728,691,2.2290
4.9771,630,2.0323
4.9814,544,1.7548
4.9857,503,1.6226
4.9899,601,1.9387
4.9942,727,2.3452
4.9985,619,1.9968
5.0041,513,1.6548
5.0099,599,1.9323
5.0144,721,2.3258
5.0188,607,1.9581
5.0233,520,1.6774
5.0278,496,1.6000
5.0322,728,2.3484
5.0367,669,2.1581
5.0422,536,1.7290
5.0467,497,1.6032
5.0510,645,2.0806
5.0553,664,2.1419
5.0595,575,1.8548
5.0639,514,1.6581
5.0681,499,1.6097
5.0725,738,2.3806
5.0768,672,2.1677
5.0810,559,1.8032
5.0853,503,1.6226
5.0896,566,1.8258
5.0939,723,2.3323
5.0981,625,2.0161
5.1024,533,1.7194
5.1067,498,1.6065
5.1110,611,1.9710
5.1152,623,2.0097
5.1195,558,1.8000
5.1239,513,1.6548
5.1281,503,1.6226
5.1325,721,2.3258
5.1367,660,2.1290
5.1410,557,1.7968
5.1452,503,1.6226
5.1495,562,1.8129
5.1537,718,2.3161
5.1580,625,2.0161
5.1622,534,1.7226
5.1665,499,1.6097
5.1707,648,2.0903
5.1750,689,2.2226
5.1792,590,1.9032
5.1835,518,1.6710
5.1877,496,1.6000
5.1919,700,2.2581
5.1962,668,2.1548
5.2004,567,1.8290
5.2046,508,1.6387
5.2089,518,1.6710
5.2131,711,2.2935
5.2174,635,2.0484
5.2217,542,1.7484
5.2260,501,1.6161
5.2302,616,1.9871
5.2345,686,2.2129
5.2388,594,1.9161
5.2431,521,1.6806
5.2473,499,1.6097
5.2516,696,2.2452
5.2558,679,2.1903
5.2601,572,1.8452
5.2644,510,1.6452
5.2687,510,1.6452
5.2730,666,2.1484
5.2772,608,1.9613
5.2815,536,1.7290
5.2858,503,1.6226
5.2900,573,1.8484
5.2943,618,1.9935
5.2986,562,1.8129
5.3029,517,1.6677
5.3072,503,1.6226
5.3115,719,2.3194
5.3157,701,2.2613
5.3200,581,1.8742
5.3243,509,1.6419
5.3286,505,1.6290
5.3329,685,2.2097
5.3371,622,2.0065
5.3415,539,1.7387
5.3457,502,1.6194
5.3500,610,1.9677
5.3543,698,2.2516
5.3585,602,1.9419
5.3628,524,1.6903
5.3671,498,1.6065
5.3713,601,1.9387
5.3756,593,1.9129
5.3799,544,1.7548
5.3841,510,1.6452
5.3884,510,1.6452
5.3927,699,2.2548
5.3970,633,2.0419
5.4012,544,1.7548
5.4055,502,1.6194
5.4098,606,1.9548
5.4141,719,2.3194
5.4184,614,1.9806
5.4226,527,1.7000
5.4269,498,1.6065
5.4312,583,1.8806
5.4354,583,1.8806
5.4397,540,1.7419
5.4440,510,1.6452
5.4483,508,1.6387
5.4526,688,2.2194
5.4569,630,2.0323
5.4611,544,1.7548
5.4654,503,1.6226
5.4697,597,1.9258
5.4740,709,2.2871
5.4783,611,1.9710
5.4825,526,1.6968
5.4868,496,1.6000
5.4911,646,2.0839
5.4954,645,2.0806
5.4997,563,1.8161
5.5040,512,1.6516
5.5082,505,1.6290
5.5125,749,2.4161
5.5168,674,2.1742
5.5211,558,1.8000
5.5254,502,1.6194
5.5296,578,1.8645
5.5339,699,2.2548
5.5382,606,1.9548
5.5425,528,1.7032
5.5468,499,1.6097
5.5514,696,2.2452
5.5558,677,2.1839
5.5601,571,1.8419
5.5643,511,1.6484
5.5686,513,1.6548
5.5729,728,2.3484
5.5771,648,2.0903
5.5814,546,1.7613
5.5857,500,1.6129
5.5900,558,1.8000
5.5942,595,1.9194
5.5985,551,1.7774
5.6028,516,1.6645
5.6071,504,1.6258
5.6113,705,2.2742
5.6156,691,2.2290
5.6199,578,1.8645
5.6242,510,1.6452
5.6284,508,1.6387
5.6327,748,2.4129
5.6370,662,2.1355
5.6413,550,1.7742
5.6456,501,1.6161
5.6498,589,1.9000
5.6541,663,2.1387
5.6583,584,1.8839
5.6626,522,1.6839
5.6668,499,1.6097
5.6711,695,2.2419
5.6754,693,2.2355
5.6797,581,1.8742
5.6840,512,1.6516
5.6882,502,1.6194
5.6925,731,2.3581
5.6968,659,2.1258
5.7011,551,1.7774
5.7053,502,1.6194
5.7096,597,1.9258
5.7139,723,2.3323
5.7181,619,1.9968
5.7225,528,1.7032
5.7267,497,1.6032
5.7310,678,2.1871
5.7353,684,2.2065
5.7396,579,1.8677
5.7439,512,1.6516
5.7481,501,1.6161
5.7524,721,2.3258
5.7567,657,2.1194
5.7609,553,1.7839
5.7652,503,1.6226
5.7694,577,1.8613
5.7737,711,2.2935
5.7780,615,1.9839
5.7823,529,1.7065
5.7865,498,1.6065
5.7908,662,2.1355
5.7951,680,2.1935
5.7994,581,1.8742
5.8036,514,1.6581
5.8079,499,1.6097
5.8122,715,2.3065
5.8164,660,2.1290
5.8207,556,1.7935
5.8250,504,1.6258
5.8292,534,1.7226
5.8335,584,1.8839
5.8378,549,1.7710
5.8420,517,1.6677
5.8463,504,1.6258
5.8505,672,2.1677
5.8548,702,2.2645
5.8591,592,1.9097
5.8633,516,1.6645
5.8676,496,1.6000
5.8718,702,2.2645
5.8761,659,2.1258
5.8804,558,1.8000
5.8847,505,1.6290
5.8890,546,1.7613
5.8933,730,2.3548
5.8975,633,2.0419
5.9018,537,1.7323
5.9061,498,1.6065
5.9103,635,2.0484
5.9146,676,2.1806
5.9189,583,1.8806
5.9232,516,1.6645
5.9274,498,1.6065
5.9317,728,2.3484
5.9360,686,2.2129
5.9403,570,1.8387
5.9446,506,1.6323
5.9488,530,1.7097
5.9531,729,2.3516
5.9574,638,2.0581
5.9616,539,1.7387
5.9659,499,1.6097
5.9702,652,2.1032
5.9744,716,2.3097
5.9787,602,1.9419
5.9830,520,1.6774
5.9873,495,1.5968
5.9916,596,1.9226
5.9958,583,1.8806
6.0001,536,1.7290
6.0044,508,1.6387
6.0087,525,1.6935
6.0129,675,2.1774
6.0172,607,1.9581
6.0215,534,1.7226
6.0257,501,1.6161
6.0300,585,1.8871
6.0343,615,1.9839
6.0386,559,1.8032
6.0428,516,1.6645
6.0471,501,1.6161
6.0513,715,2.3065
6.0556,688,2.2194
6.0599,574,1.8516
6.0641,509,1.6419
6.0684,509,1.6419
6.0727,712,2.2968
6.0769,638,2.0581
6.0812,544,1.7548
6.0855,501,1.6161
6.0898,619,1.9968
6.0940,708,2.2839
6.0983,607,1.9581
6.1026,525,1.6935
6.1068,497,1.6032
6.1111,675,2.1774
6.1154,666,2.1484
6.1197,566,1.8258
6.1241,509,1.6419
6.1284,515,1.6613
6.1327,729,2.3516
6.1369,646,2.0839
6.1412,545,1.7581
6.1455,500,1.6129
6.1498,604,1.9484
6.1540,682,2.2000
6.1583,592,1.9097
6.1626,522,1.6839
6.1668,498,1.6065
6.1711,661,2.1323
6.1754,649,2.0935
6.1797,560,1.8065
6.1840,509,1.6419
6.1883,512,1.6516
6.1926,736,2.3742
6.1969,654,2.1097
6.2011,545,1.7581
6.2054,499,1.6097
6.2097,642,2.0710
6.2140,751,2.4226
6.2183,625,2.0161
6.2226,528,1.7032
6.2268,496,1.6000
6.2311,645,2.0806
6.2354,636,2.0516
6.2396,559,1.8032
6.2439,511,1.6484
6.2482,508,1.6387
6.2525,691,2.2290
6.2567,627,2.0226
6.2610,540,1.7419
6.2653,503,1.6226
6.2696,613,1.9774
6.2739,720,2.3226
6.2782,612,1.9742
6.2824,527,1.7000
6.2867,497,1.6032
6.2910,689,2.2226
6.2952,687,2.2161
6.2995,578,1.8645
6.3039,512,1.6516
6.3081,503,1.6226
6.3124,719,2.3194
6.3167,646,2.0839
6.3209,549,1.7710
6.3252,502,1.6194
6.3295,590,1.9032
6.3337,690,2.2258
6.3380,602,1.9419
6.3423,525,1.6935
6.3465,499,1.6097
6.3508,687,2.2161
6.3551,689,2.2226
6.3593,582,1.8774
6.3636,512,1.6516
6.3679,498,1.6065
6.3721,714,2.3032
6.3764,652,2.1032
6.3807,552,1.7806
6.3850,504,1.6258
6.3892,562,1.8129
6.3935,652,2.1032
6.3978,582,1.8774
6.4020,524,1.6903
6.4063,502,1.6194
6.4106,687,2.2161
6.4149,701,2.2613
6.4191,587,1.8935
6.4234,514,1.6581
6.4277,497,1.6032
6.4320,716,2.3097
6.4363,658,2.1226
6.4405,555,1.7903
6.4448,503,1.6226
6.4491,577,1.8613
6.4534,727,2.3452
6.4577,624,2.0129
6.4619,532,1.7161
6.4662,498,1.6065
6.4704,687,2.2161
6.4747,711,2.2935
6.4790,595,1.9194
6.4833,515,1.6613
6.4875,496,1.6000
6.4918,657,2.1194
6.4961,616,1.9871
6.5005,541,1.7452
6.5048,506,1.6323
6.5091,552,1.7806
6.5133,624,2.0129
6.5176,568,1.8323
6.5219,521,1.6806
6.5261,503,1.6226
6.5304,679,2.1903
6.5347,701,2.2613
6.5390,589,1.9000
6.5432,516,1.6645
6.5475,497,1.6032
6.5518,682,2.2000
6.5561,635,2.0484
6.5603,549,1.7710
6.5646,505,1.6290
6.5689,555,1.7903
6.5731,713,2.3000
6.5774,621,2.0032
6.5817,534,1.7226
6.5860,498,1.6065
6.5902,646,2.0839
6.5945,678,2.1871
6.5988,583,1.8806
6.6031,516,1.6645
6.6074,499,1.6097
6.6117,723,2.3323
6.6160,672,2.1677
6.6202,562,1.8129
6.6245,504,1.6258
6.6288,548,1.7677
6.6331,695,2.2419
6.6374,612,1.9742
6.6417,532,1.7161
6.6459,500,1.6129
6.6502,665,2.1452
6.6545,701,2.2613
6.6588,594,1.9161
6.6630,517,1.6677
6.6673,496,1.6000
6.6715,649,2.0935
6.6758,618,1.9935
6.6801,545,1.7581
6.6844,507,1.6355
6.6886,541,1.7452
6.6929,725,2.3387
6.6972,634,2.0452
6.7015,538,1.7355
6.7058,499,1.6097
6.7100,659,2.1258
6.7143,713,2.3000
6.7186,602,1.9419
6.7228,520,1.6774
6.7271,496,1.6000
6.7314,719,2.3194
6.7357,678,2.1871
6.7400,567,1.8290
6.7442,506,1.6323
6.7485,536,1.7290
6.7528,753,2.4290
6.7571,652,2.1032
6.7615,541,1.7452
6.7657,497,1.6032
6.7700,628,2.0258
6.7742,670,2.1613
6.7785,581,1.8742
6.7828,517,1.6677
6.7871,499,1.6097
6.7914,731,2.3581
6.7956,689,2.2226
6.7999,570,1.8387
6.8042,506,1.6323
6.8085,534,1.7226
6.8128,745,2.4032
6.8170,649,2.0935
6.8213,541,1.7452
6.8256,499,1.6097
6.8298,650,2.0968
6.8341,717,2.3129
6.8384,605,1.9516
6.8427,521,1.6806
6.8469,495,1.5968
6.8512,719,2.3194
6.8554,691,2.2290
6.8597,573,1.8484
6.8640,508,1.6387
6.8683,520,1.6774
6.8726,721,2.3258
6.8768,640,2.0645
6.8811,543,1.7516
6.8853,500,1.6129
6.8896,629,2.0290
6.8939,709,2.2871
6.8981,605,1.9516
6.9024,523,1.6871
6.9067,496,1.6000
6.9109,614,1.9806
6.9152,600,1.9355
6.9195,542,1.7484
6.9240,507,1.6355
6.9282,530,1.7097
6.9325,768,2.4774
6.9368,662,2.1355
6.9412,546,1.7613
6.9455,498,1.6065
6.9498,623,2.0097
6.9541,672,2.1677
6.9585,582,1.8774
6.9628,518,1.6710
6.9670,497,1.6032
6.9713,651,2.1000
6.9757,620,2.0000
6.9800,546,1.7613
6.9843,506,1.6323
6.9886,532,1.7161
6.9929,612,1.9742
6.9972,564,1.8194
7.0015,521,1.6806
7.0057,504,1.6258
7.0101,580,1.8710
7.0143,589,1.9000
7.0186,546,1.7613
7.0229,512,1.6516
7.0272,503,1.6226
7.0315,723,2.3323
7.0359,666,2.1484
7.0402,556,1.7935
7.0447,501,1.6161
7.0492,612,1.9742
7.0538,706,2.2774
7.0582,600,1.9355
7.0628,517,1.6677
7.0673,498,1.6065
7.0718,726,2.3419
7.0761,660,2.1290
7.0805,552,1.7806
7.0848,502,1.6194
7.0892,610,1.9677
7.0936,719,2.3194
7.0979,611,1.9710
7.1022,526,1.6968
7.1065,496,1.6000
7.1108,718,2.3161
7.1151,700,2.2581
7.1194,579,1.8677
7.1237,509,1.6419
7.1282,528,1.7032
7.1327,751,2.4226
7.1371,648,2.0903
7.1413,541,1.7452
7.1456,498,1.6065
7.1498,663,2.1387
7.1541,724,2.3355
7.1583,608,1.9613
7.1625,521,1.6806
7.1668,496,1.6000
7.1710,715,2.3065
7.1752,691,2.2290
7.1795,576,1.8581
7.1837,509,1.6419
7.1880,509,1.6419
7.1922,664,2.1419
7.1965,609,1.9645
7.2007,538,1.7355
7.2049,505,1.6290
7.2092,596,1.9226
7.2135,676,2.1806
7.2177,592,1.9097
7.2220,523,1.6871
7.2262,500,1.6129
7.2304,696,2.2452
7.2347,702,2.2645
7.2390,586,1.8903
7.2433,512,1.6516
7.2475,498,1.6065
7.2518,715,2.3065
7.2561,652,2.1032
7.2604,551,1.7774
7.2646,502,1.6194
7.2690,571,1.8419
7.2733,666,2.1484
7.2776,589,1.9000
7.2819,524,1.6903
7.2862,501,1.6161
7.2904,696,2.2452
7.2947,698,2.2516
7.2990,584,1.8839
7.3033,513,1.6548
7.3076,498,1.6065
7.3119,733,2.3645
7.3162,662,2.1355
7.3205,552,1.7806
7.3248,502,1.6194
7.3291,610,1.9677
7.3335,732,2.3613
7.3377,618,1.9935
7.3420,527,1.7000
7.3463,496,1.6000
7.3506,708,2.2839
7.3549,701,2.2613
7.3592,583,1.8806
7.3639,507,1.6355
7.3683,533,1.7194
7.3727,687,2.2161
7.3770,610,1.9677
7.3815,529,1.7065
7.3860,500,1.6129
7.3905,706,2.2774
7.3949,695,2.2419
7.3993,577,1.8613
7.4041,505,1.6290
7.4084,539,1.7387
7.4127,738,2.3806
7.4171,639,2.0613
7.4214,537,1.7323
7.4256,498,1.6065
7.4299,673,2.1710
7.4344,713,2.3000
7.4387,596,1.9226
7.4430,517,1.6677
7.4472,496,1.6000
7.4515,745,2.4032
7.4558,682,2.2000
7.4601,564,1.8194
7.4644,502,1.6194
7.4687,577,1.8613
7.4730,737,2.3774
7.4772,633,2.0419
7.4815,534,1.7226
7.4858,497,1.6032
7.4901,646,2.0839
7.4943,666,2.1484
7.4986,578,1.8645
7.5028,515,1.6613
7.5071,497,1.6032
7.5113,594,1.9161
7.5155,571,1.8419
7.5198,530,1.7097
7.5241,507,1.6355
7.5283,550,1.7742
7.5325,751,2.4226
7.5368,648,2.0903
7.5411,541,1.7452
7.5454,497,1.6032
7.5496,662,2.1355
7.5539,730,2.3548
7.5582,610,1.9677
7.5625,522,1.6839
7.5667,495,1.5968
7.5709,716,2.3097
7.5752,685,2.2097
7.5795,572,1.8452
7.5837,508,1.6387
7.5880,517,1.6677
7.5923,731,2.3581
7.5965,645,2.0806
7.6008,544,1.7548
7.6051,501,1.6161
7.6093,636,2.0516
7.6136,729,2.3516
7.6178,616,1.9871
7.6221,525,1.6935
7.6264,496,1.6000
7.6306,701,2.2613
7.6349,687,2.2161
7.6392,574,1.8516
7.6436,508,1.6387
7.6479,511,1.6484
7.6522,645,2.0806
7.6565,591,1.9065
7.6608,529,1.7065
7.6651,502,1.6194
7.6694,695,2.2419
7.6737,791,2.5516
7.6780,639,2.0613
7.6823,525,1.6935
7.6866,491,1.5839
7.6909,709,2.2871
7.6952,682,2.2000
7.6995,569,1.8355
7.7039,506,1.6323
7.7082,526,1.6968
7.7124,740,2.3871
7.7167,645,2.0806
7.7210,541,1.7452
7.7254,498,1.6065
7.7297,677,2.1839
7.7340,728,2.3484
7.7383,605,1.9516
7.7426,518,1.6710
7.7469,493,1.5903
7.7511,723,2.3323
7.7554,682,2.2000
7.7597,567,1.8290
7.7639,507,1.6355
7.7682,530,1.7097
7.7725,669,2.1581
7.7767,601,1.9387
7.7810,532,1.7161
7.7852,502,1.6194
7.7895,659,2.1258
7.7938,734,2.3677
7.7980,613,1.9774
7.8023,522,1.6839
7.8066,495,1.5968
7.8108,728,2.3484
7.8150,698,2.2516
7.8193,577,1.8613
7.8236,509,1.6419
7.8278,514,1.6581
7.8321,752,2.4258
7.8363,661,2.1323
7.8406,547,1.7645
7.8450,499,1.6097
7.8493,649,2.0935
7.8536,739,2.3839
7.8579,615,1.9839
7.8622,524,1.6903
7.8665,495,1.5968
7.8708,713,2.3000
7.8751,683,2.2032
7.8794,571,1.8419
7.8836,508,1.6387
7.8880,519,1.6742
7.8923,631,2.0355
7.8966,578,1.8645
7.9009,525,1.6935
7.9052,504,1.6258
7.9095,623,2.0097
7.9137,666,2.1484
7.9180,579,1.8677
7.9223,517,1.6677
7.9266,499,1.6097
7.9309,725,2.3387
7.9352,685,2.2097
7.9396,568,1.8323
7.9439,505,1.6290
7.9482,534,1.7226
7.9525,725,2.3387
7.9568,631,2.0355
7.9610,537,1.7323
7.9653,499,1.6097
7.9696,601,1.9387
7.9740,626,2.0194
7.9782,562,1.8129
7.9826,514,1.6581
7.9868,501,1.6161
7.9912,702,2.2645
7.9955,651,2.1000
7.9998,554,1.7871
8.0041,504,1.6258
8.0083,542,1.7484
8.0127,648,2.0903
8.0169,583,1.8806
8.0212,524,1.6903
8.0255,501,1.6161
8.0298,694,2.2387
8.0341,725,2.3387
8.0384,600,1.9355
8.0427,515,1.6613
8.0470,495,1.5968
8.0513,734,2.3677
8.0556,675,2.1774
8.0599,560,1.8065
8.0642,502,1.6194
8.0685,549,1.7710
8.0728,642,2.0710
8.0771,581,1.8742
8.0814,524,1.6903
8.0857,503,1.6226
8.0900,597,1.9258
8.0943,599,1.9323
8.0986,547,1.7645
8.1029,511,1.6484
8.1072,505,1.6290
8.1115,696,2.2452
8.1158,635,2.0484
8.1201,547,1.7645
8.1244,502,1.6194
8.1286,596,1.9226
8.1329,729,2.3516
8.1373,620,2.0000
8.1416,527,1.7000
8.1459,496,1.6000
8.1502,698,2.2516
8.1545,698,2.2516
8.1588,584,1.8839
8.1631,512,1.6516
8.1673,498,1.6065
8.1716,748,2.4129
8.1760,669,2.1581
8.1803,554,1.7871
8.1846,499,1.6097
8.1889,614,1.9806
8.1932,738,2.3806
8.1975,620,2.0000
8.2018,527,1.7000
8.2061,496,1.6000
8.2104,663,2.1387
8.2147,648,2.0903
8.2191,561,1.8097
8.2234,509,1.6419
8.2276,515,1.6613
8.2320,725,2.3387
8.2363,640,2.0645
8.2406,542,1.7484
8.2449,500,1.6129
8.2492,638,2.0581
8.2535,719,2.3194
8.2578,606,1.9548
8.2621,521,1.6806
8.2664,496,1.6000
8.2707,677,2.1839
8.2750,651,2.1000
8.2793,559,1.8032
8.2836,507,1.6355
8.2879,531,1.7129
8.2922,748,2.4129
8.2965,647,2.0871
8.3009,541,1.7452
8.3052,498,1.6065
8.3095,668,2.1548
8.3138,724,2.3355
8.3181,602,1.9419
8.3224,518,1.6710
8.3267,495,1.5968
8.3310,709,2.2871
8.3353,663,2.1387
8.3396,559,1.8032
8.3439,505,1.6290
8.3482,556,1.7935
8.3525,737,2.3774
8.3568,633,2.0419
8.3611,535,1.7258
8.3654,497,1.6032
8.3698,685,2.2097
8.3740,715,2.3065
8.3784,596,1.9226
8.3827,516,1.6645
8.3869,496,1.6000
8.3913,740,2.3871
8.3955,674,2.1742
8.3998,559,1.8032
8.4041,502,1.6194
8.4084,557,1.7968
8.4127,655,2.1129
8.4170,586,1.8903
8.4213,523,1.6871
8.4256,500,1.6129
8.4299,745,2.4032
8.4341,767,2.4742
8.4384,615,1.9839
8.4427,516,1.6645
8.4470,494,1.5935
8.4513,741,2.3903
8.4556,675,2.1774
8.4599,560,1.8065
8.4642,503,1.6226
8.4684,584,1.8839
8.4727,744,2.4000
8.4770,634,2.0452
8.4813,534,1.7226
8.4856,496,1.6000
8.4899,628,2.0258
8.4941,634,2.0452
8.4984,561,1.8097
8.5027,512,1.6516
8.5071,502,1.6194
8.5113,748,2.4129
8.5156,674,2.1742
8.5199,558,1.8000
8.5242,501,1.6161
8.5285,563,1.8161
8.5328,661,2.1323
8.5371,588,1.8968
8.5414,523,1.6871
8.5457,501,1.6161
8.5500,692,2.2323
8.5543,688,2.2194
8.5587,578,1.8645
8.5629,510,1.6452
8.5673,505,1.6290
8.5716,670,2.1613
8.5759,612,1.9742
8.5802,538,1.7355
8.5845,503,1.6226
8.5888,628,2.0258
8.5931,734,2.3677
8.5974,618,1.9935
8.6017,525,1.6935
8.6060,495,1.5968
8.6103,701,2.2613
8.6146,683,2.2032
8.6189,573,1.8484
8.6232,509,1.6419
8.6275,512,1.6516
8.6317,711,2.2935
8.6360,634,2.0452
8.6403,542,1.7484
8.6446,501,1.6161
8.6489,625,2.0161
8.6532,710,2.2903
8.6575,606,1.9548
8.6618,523,1.6871
8.6661,497,1.6032
8.6703,623,2.0097
8.6747,607,1.9581
8.6789,546,1.7613
8.6832,509,1.6419
8.6875,525,1.6935
8.6918,739,2.3839
8.6961,646,2.0839
8.7004,543,1.7516
8.7047,499,1.6097
8.7090,623,2.0097
8.7133,681,2.1968
8.7176,588,1.8968
8.7219,519,1.6742
8.7262,498,1.6065
8.7305,739,2.3839
8.7348,703,2.2677
8.7391,576,1.8581
8.7434,507,1.6355
8.7477,529,1.7065
8.7520,765,2.4677
8.7564,659,2.1258
8.7606,544,1.7548
8.7649,497,1.6032
8.7692,648,2.0903
8.7735,700,2.2581
8.7778,594,1.9161
8.7821,518,1.6710
8.7864,497,1.6032
8.7907,736,2.3742
8.7950,690,2.2258
8.7993,569,1.8355
8.8036,505,1.6290
8.8079,547,1.7645
8.8122,749,2.4161
8.8165,647,2.0871
8.8208,540,1.7419
8.8251,497,1.6032
8.8294,663,2.1387
8.8337,710,2.2903
8.8379,597,1.9258
8.8423,518,1.6710
8.8465,496,1.6000
8.8508,721,2.3258
8.8552,671,2.1645
8.8595,560,1.8065
8.8638,504,1.6258
8.8681,558,1.8000
8.8724,733,2.3645
8.8767,630,2.0323
8.8810,534,1.7226
8.8853,498,1.6065
8.8895,670,2.1613
8.8939,693,2.2355
8.8982,587,1.8935
8.9025,514,1.6581
8.9068,497,1.6032
8.9110,707,2.2806
8.9154,652,2.1032
8.9197,552,1.7806
8.9240,503,1.6226
8.9283,588,1.8968
8.9326,733,2.3645
8.9369,625,2.0161
8.9412,530,1.7097
8.9455,497,1.6032
8.9498,696,2.2452
8.9541,705,2.2742
8.9584,588,1.8968
8.9627,512,1.6516
8.9670,499,1.6097
8.9713,737,2.3774
8.9756,665,2.1452
8.9799,553,1.7839
8.9842,501,1.6161
8.9885,609,1.9645
8.9928,741,2.3903
8.9971,626,2.0194
9.0014,528,1.7032
9.0057,495,1.5968
9.0100,572,1.8452
9.0143,568,1.8323
9.0187,533,1.7194
9.0229,510,1.6452
9.0272,517,1.6677
9.0315,652,2.1032
9.0358,598,1.9290
9.0401,533,1.7194
9.0443,504,1.6258
9.0486,628,2.0258
9.0529,735,2.3710
9.0572,618,1.9935
9.0616,525,1.6935
9.0658,495,1.5968
9.0701,735,2.3710
9.0744,718,2.3161
9.0787,586,1.8903
9.0830,509,1.6419
9.0873,508,1.6387
9.0916,730,2.3548
9.0958,649,2.0935
9.1002,546,1.7613
9.1045,499,1.6097
9.1088,645,2.0806
9.1131,737,2.3774
9.1174,617,1.9903
9.1217,523,1.6871
9.1260,494,1.5935
9.1303,727,2.3452
9.1346,698,2.2516
9.1389,578,1.8645
9.1432,507,1.6355
9.1475,516,1.6645
9.1518,743,2.3968
9.1561,649,2.0935
9.1604,542,1.7484
9.1647,498,1.6065
9.1690,662,2.1355
9.1733,730,2.3548
9.1776,610,1.9677
9.1820,519,1.6742
9.1862,494,1.5935
9.1905,703,2.2677
9.1948,662,2.1355
9.1991,560,1.8065
9.2034,507,1.6355
9.2078,530,1.7097
9.2121,605,1.9516
9.2164,561,1.8097
9.2207,520,1.6774
9.2250,504,1.6258
9.2293,627,2.0226
9.2336,644,2.0774
9.2379,567,1.8290
9.2422,513,1.6548
9.2465,500,1.6129
9.2509,714,2.3032
9.2552,658,2.1226
9.2600,546,1.7613
9.2643,501,1.6161
9.2687,616,1.9871
9.2730,694,2.2387
9.2772,598,1.9290
9.2815,521,1.6806
9.2859,496,1.6000
9.2902,661,2.1323
9.2945,640,2.0645
9.2988,556,1.7935
9.3031,508,1.6387
9.3074,524,1.6903
9.3117,709,2.2871
9.3161,626,2.0194
9.3204,537,1.7323
9.3247,500,1.6129
9.3290,679,2.1903
9.3333,748,2.4129
9.3376,614,1.9806
9.3419,520,1.6774
9.3462,494,1.5935
9.3505,704,2.2710
9.3548,662,2.1355
9.3591,560,1.8065
9.3634,505,1.6290
9.3677,547,1.7645
9.3720,709,2.2871
9.3763,621,2.0032
9.3806,533,1.7194
9.3849,499,1.6097
9.3892,694,2.2387
9.3935,734,2.3677
9.3978,604,1.9484
9.4021,517,1.6677
9.4064,494,1.5935
9.4107,732,2.3613
9.4150,676,2.1806
9.4193,562,1.8129
9.4236,504,1.6258
9.4279,565,1.8226
9.4322,758,2.4452
9.4365,646,2.0839
9.4407,537,1.7323
9.4450,496,1.6000
9.4493,689,2.2226
9.4537,716,2.3097
9.4580,597,1.9258
9.4623,515,1.6613
9.4666,497,1.6032
9.4709,750,2.4194
9.4752,679,2.1903
9.4795,560,1.8065
9.4838,502,1.6194
9.4881,584,1.8839
9.4924,729,2.3516
9.4967,624,2.0129
9.5010,530,1.7097
9.5053,496,1.6000
9.5096,708,2.2839
9.5139,714,2.3032
9.5182,590,1.9032
9.5225,511,1.6484
9.5268,503,1.6226
9.5311,754,2.4323
9.5354,674,2.1742
9.5397,555,1.7903
9.5440,499,1.6097
9.5483,621,2.0032
9.5526,748,2.4129
9.5569,626,2.0194
9.5612,527,1.7000
9.5655,494,1.5935
9.5698,728,2.3484
9.5741,718,2.3161
9.5784,589,1.9000
9.5827,511,1.6484
9.5869,504,1.6258
9.5913,757,2.4419
9.5956,670,2.1613
9.5999,553,1.7839
9.6042,499,1.6097
9.6085,646,2.0839
9.6128,758,2.4452
9.6171,628,2.0258
9.6214,527,1.7000
9.6257,493,1.5903
9.6300,696,2.2452
9.6343,673,2.1710
9.6385,570,1.8387
9.6428,508,1.6387
9.6471,510,1.6452
9.6514,626,2.0194
9.6558,579,1.8677
9.6601,526,1.6968
9.6644,504,1.6258
9.6687,592,1.9097
9.6730,628,2.0258
9.6773,562,1.8129
9.6816,515,1.6613
9.6858,501,1.6161
9.6901,732,2.3613
9.6944,697,2.2484
9.6987,574,1.8516
9.7030,506,1.6323
9.7072,517,1.6677
9.7116,721,2.3258
9.7158,637,2.0548
9.7202,540,1.7419
9.7245,500,1.6129
9.7287,634,2.0452
9.7330,696,2.2452
9.7373,595,1.9194
9.7416,520,1.6774
9.7459,497,1.6032
9.7502,720,2.3226
9.7545,684,2.2065
9.7588,569,1.8355
9.7631,506,1.6323
9.7674,536,1.7290
9.7717,738,2.3806
9.7760,642,2.0710
9.7803,539,1.7387
9.7846,498,1.6065
9.7888,629,2.0290
9.7932,672,2.1677
9.7975,582,1.8774
9.8018,516,1.6645
9.8061,498,1.6065
9.8104,738,2.3806
9.8147,688,2.2194
9.8190,569,1.8355
9.8233,505,1.6290
9.8275,538,1.7355
9.8318,663,2.1387
9.8361,594,1.9161
9.8404,528,1.7032
9.8447,502,1.6194
9.8490,598,1.9290
9.8533,614,1.9806
9.8577,555,1.7903
9.8620,512,1.6516
9.8663,502,1.6194
9.8705,757,2.4419
9.8748,692,2.2323
9.8791,563,1.8161
9.8834,503,1.6226
9.8877,572,1.8452
9.8920,764,2.4645
9.8963,647,2.0871
9.9006,537,1.7323
9.9049,496,1.6000
9.9091,671,2.1645
9.9134,698,2.2516
9.9177,589,1.9000
9.9220,514,1.6581
9.9263,496,1.6000
9.9306,723,2.3323
9.9349,663,2.1387
9.9392,556,1.7935
9.9435,504,1.6258
9.9478,578,1.8645
9.9521,720,2.3226
9.9564,622,2.0065
9.9607,531,1.7129
9.9651,498,1.6065
9.9694,654,2.1097
9.9737,660,2.1290
9.9780,569,1.8355
9.9823,510,1.6452
9.9866,502,1.6194
9.9909,716,2.3097
9.9952,646,2.0839
9.9995,548,1.7677
