time_s,adc_raw,voltage
0.0000,0,0.0000
0.0044,0,0.0000
0.0088,1005,3.2419
0.0132,1005,3.2419
0.0176,812,2.6194
0.0220,0,0.0000
0.0269,1005,3.2419
0.0320,1005,3.2419
0.0370,997,3.2161
0.0413,0,0.0000
0.0456,381,1.2290
0.0499,1007,3.2484
0.0542,1004,3.2387
0.0586,191,0.6161
0.0629,0,0.0000
0.0673,1006,3.2452
0.0716,1007,3.2484
0.0759,1004,3.2387
0.0802,0,0.0000
0.0845,190,0.6129
0.0889,1006,3.2452
0.0932,1006,3.2452
0.0975,917,2.9581
0.1018,0,0.0000
0.1062,885,2.8548
0.1105,1007,3.2484
0.1149,1006,3.2452
0.1192,0,0.0000
0.1236,0,0.0000
0.1280,1005,3.2419
0.1323,1005,3.2419
0.1366,1002,3.2323
0.1409,0,0.0000
0.1453,309,0.9968
0.1495,1007,3.2484
0.1539,1007,3.2484
0.1582,417,1.3452
0.1625,0,0.0000
0.1668,1003,3.2355
0.1711,1007,3.2484
0.1754,1004,3.2387
0.1797,0,0.0000
0.1840,0,0.0000
0.1883,1006,3.2452
0.1927,1004,3.2387
0.1970,1000,3.2258
0.2013,0,0.0000
0.2056,637,2.0548
0.2099,1004,3.2387
0.2142,1005,3.2419
0.2185,181,0.5839
0.2229,0,0.0000
0.2272,1004,3.2387
0.2315,1004,3.2387
0.2358,1004,3.2387
0.2401,0,0.0000
0.2444,252,0.8129
0.2487,1004,3.2387
0.2530,1006,3.2452
0.2573,957,3.0871
0.2617,0,0.0000
0.2660,972,3.1355
0.2703,1007,3.2484
0.2747,1004,3.2387
0.2790,0,0.0000
0.2834,0,0.0000
0.2877,1007,3.2484
0.2921,1006,3.2452
0.2964,1004,3.2387
0.3007,0,0.0000
0.3052,330,1.0645
0.3095,1005,3.2419
0.3139,1004,3.2387
0.3182,272,0.8774
0.3226,0,0.0000
0.3269,1006,3.2452
0.3312,1006,3.2452
0.3356,1007,3.2484
0.3399,0,0.0000
0.3442,0,0.0000
0.3485,1006,3.2452
0.3529,1005,3.2419
0.3572,772,2.4903
0.3616,0,0.0000
0.3659,793,2.5581
0.3702,1005,3.2419
0.3745,1005,3.2419
0.3788,0,0.0000
0.3832,0,0.0000
0.3875,1006,3.2452
0.3919,1007,3.2484
0.3962,1005,3.2419
0.4005,0,0.0000
0.4048,138,0.4452
0.4092,1007,3.2484
0.4136,1006,3.2452
0.4179,373,1.2032
0.4222,0,0.0000
0.4265,1006,3.2452
0.4308,1003,3.2355
0.4352,1004,3.2387
0.4395,0,0.0000
0.4438,0,0.0000
0.4481,1004,3.2387
0.4525,1005,3.2419
0.4568,938,3.0258
0.4611,0,0.0000
0.4654,520,1.6774
0.4697,1006,3.2452
0.4740,1006,3.2452
0.4783,116,0.3742
0.4826,0,0.0000
0.4869,1005,3.2419
0.4913,1004,3.2387
0.4956,1005,3.2419
0.4999,0,0.0000
0.5042,0,0.0000
0.5085,1006,3.2452
0.5129,1003,3.2355
0.5173,700,2.2581
0.5216,0,0.0000
0.5259,999,3.2226
0.5303,1004,3.2387
0.5346,1006,3.2452
0.5389,0,0.0000
0.5432,0,0.0000
0.5475,1006,3.2452
0.5519,1006,3.2452
0.5562,1004,3.2387
0.5605,0,0.0000
0.5649,864,2.7871
0.5692,1006,3.2452
0.5736,1005,3.2419
0.5779,498,1.6065
0.5822,0,0.0000
0.5866,1007,3.2484
0.5909,1006,3.2452
0.5952,1005,3.2419
0.5996,0,0.0000
0.6039,200,0.6452
0.6082,1005,3.2419
0.6125,1006,3.2452
0.6168,991,3.1968
0.6211,0,0.0000
0.6255,1005,3.2419
0.6298,1004,3.2387
0.6341,1005,3.2419
0.6384,89,0.2871
0.6427,0,0.0000
0.6471,1006,3.2452
0.6514,1005,3.2419
0.6557,1005,3.2419
0.6601,0,0.0000
0.6644,164,0.5290
0.6687,1005,3.2419
0.6731,1005,3.2419
0.6774,587,1.8935
0.6817,0,0.0000
0.6861,1006,3.2452
0.6904,1005,3.2419
0.6947,1004,3.2387
0.6991,0,0.0000
0.7035,0,0.0000
0.7079,1006,3.2452
0.7122,1005,3.2419
0.7166,919,2.9645
0.7210,0,0.0000
0.7254,645,2.0806
0.7298,1007,3.2484
0.7342,1004,3.2387
0.7386,0,0.0000
0.7430,0,0.0000
0.7474,1005,3.2419
0.7518,1006,3.2452
0.7563,999,3.2226
0.7606,0,0.0000
0.7650,498,1.6065
0.7693,1004,3.2387
0.7737,1006,3.2452
0.7780,103,0.3323
0.7824,0,0.0000
0.7867,1005,3.2419
0.7910,1005,3.2419
0.7954,1005,3.2419
0.7997,0,0.0000
0.8040,148,0.4774
0.8083,1006,3.2452
0.8127,1006,3.2452
0.8170,748,2.4129
0.8214,0,0.0000
0.8258,1005,3.2419
0.8301,1004,3.2387
0.8345,1006,3.2452
0.8388,0,0.0000
0.8432,0,0.0000
0.8476,1004,3.2387
0.8519,1004,3.2387
0.8563,988,3.1871
0.8606,0,0.0000
0.8650,581,1.8742
0.8693,1006,3.2452
0.8737,1006,3.2452
0.8782,0,0.0000
0.8825,0,0.0000
0.8868,1005,3.2419
0.8911,1006,3.2452
0.8954,1005,3.2419
0.8998,0,0.0000
0.9041,72,0.2323
0.9084,1007,3.2484
0.9127,1006,3.2452
0.9170,594,1.9161
0.9213,0,0.0000
0.9257,978,3.1548
0.9300,1007,3.2484
0.9343,1006,3.2452
0.9386,0,0.0000
0.9429,0,0.0000
0.9472,1005,3.2419
0.9515,1005,3.2419
0.9558,1003,3.2355
0.9602,0,0.0000
0.9645,295,0.9516
0.9688,1003,3.2355
0.9731,1006,3.2452
0.9774,379,1.2226
0.9817,0,0.0000
0.9861,1007,3.2484
0.9904,1007,3.2484
0.9947,1005,3.2419
0.9989,0,0.0000
1.0032,55,0.1774
1.0075,1007,3.2484
1.0119,1006,3.2452
1.0162,1000,3.2258
1.0205,0,0.0000
1.0247,962,3.1032
1.0290,1007,3.2484
1.0333,1005,3.2419
1.0376,399,1.2871
1.0419,0,0.0000
1.0462,1006,3.2452
1.0505,1006,3.2452
1.0548,1007,3.2484
1.0591,0,0.0000
1.0635,0,0.0000
1.0678,1004,3.2387
1.0721,1007,3.2484
1.0763,897,2.8935
1.0806,0,0.0000
1.0849,691,2.2290
1.0892,1004,3.2387
1.0935,1007,3.2484
1.0978,26,0.0839
1.1021,0,0.0000
1.1064,1005,3.2419
1.1107,1005,3.2419
1.1150,1006,3.2452
1.1193,0,0.0000
1.1236,18,0.0581
1.1278,1005,3.2419
1.1321,1006,3.2452
1.1364,828,2.6710
1.1407,0,0.0000
1.1450,686,2.2129
1.1493,1005,3.2419
1.1536,1005,3.2419
1.1579,0,0.0000
1.1622,0,0.0000
1.1665,1006,3.2452
1.1708,1005,3.2419
1.1751,1004,3.2387
1.1794,0,0.0000
1.1837,51,0.1645
1.1880,1007,3.2484
1.1923,1005,3.2419
1.1967,625,2.0161
1.2010,0,0.0000
1.2054,953,3.0742
1.2097,1007,3.2484
1.2140,1004,3.2387
1.2183,0,0.0000
1.2226,0,0.0000
1.2269,1004,3.2387
1.2312,1002,3.2323
1.2355,1005,3.2419
1.2398,0,0.0000
1.2441,1004,3.2387
1.2484,1006,3.2452
1.2527,1005,3.2419
1.2570,865,2.7903
1.2613,0,0.0000
1.2656,1004,3.2387
1.2699,1005,3.2419
1.2743,1007,3.2484
1.2787,0,0.0000
1.2830,0,0.0000
1.2873,1005,3.2419
1.2917,1007,3.2484
1.2960,966,3.1161
1.3003,0,0.0000
1.3046,569,1.8355
1.3090,1005,3.2419
1.3133,1004,3.2387
1.3176,22,0.0710
1.3219,0,0.0000
1.3262,1004,3.2387
1.3305,1006,3.2452
1.3349,1004,3.2387
1.3392,0,0.0000
1.3435,69,0.2226
1.3478,1004,3.2387
1.3521,1004,3.2387
1.3565,800,2.5806
1.3608,0,0.0000
1.3650,832,2.6839
1.3693,1004,3.2387
1.3737,1006,3.2452
1.3780,0,0.0000
1.3822,0,0.0000
1.3865,1007,3.2484
1.3909,1006,3.2452
1.3952,1006,3.2452
1.3995,0,0.0000
1.4038,366,1.1806
1.4081,1006,3.2452
1.4124,1006,3.2452
1.4167,622,2.0065
1.4210,0,0.0000
1.4253,1006,3.2452
1.4297,1005,3.2419
1.4340,1006,3.2452
1.4383,0,0.0000
1.4426,0,0.0000
1.4469,1007,3.2484
1.4512,1004,3.2387
1.4555,1002,3.2323
1.4598,0,0.0000
1.4641,447,1.4419
1.4684,1004,3.2387
1.4728,1004,3.2387
1.4771,335,1.0806
1.4814,0,0.0000
1.4858,1005,3.2419
1.4901,1006,3.2452
1.4944,1005,3.2419
1.4987,0,0.0000
1.5030,0,0.0000
1.5073,1004,3.2387
1.5116,1007,3.2484
1.5160,877,2.8290
1.5202,0,0.0000
1.5246,610,1.9677
1.5288,1007,3.2484
1.5332,1007,3.2484
1.5375,0,0.0000
1.5418,0,0.0000
1.5461,1004,3.2387
1.5504,1004,3.2387
1.5547,1004,3.2387
1.5590,0,0.0000
1.5632,0,0.0000
1.5676,1007,3.2484
1.5719,1005,3.2419
1.5762,805,2.5968
1.5805,0,0.0000
1.5849,1004,3.2387
1.5892,1004,3.2387
1.5935,1004,3.2387
1.5978,0,0.0000
1.6021,0,0.0000
1.6065,1006,3.2452
1.6108,1004,3.2387
1.6151,1005,3.2419
1.6194,0,0.0000
1.6237,331,1.0677
1.6280,1005,3.2419
1.6323,1004,3.2387
1.6366,512,1.6516
1.6409,0,0.0000
1.6452,1004,3.2387
1.6495,1005,3.2419
1.6537,1005,3.2419
1.6580,0,0.0000
1.6623,0,0.0000
1.6667,1006,3.2452
1.6710,1006,3.2452
1.6753,1003,3.2355
1.6796,0,0.0000
1.6839,602,1.9419
1.6882,1004,3.2387
1.6925,1006,3.2452
1.6968,486,1.5677
1.7011,0,0.0000
1.7054,1006,3.2452
1.7097,1005,3.2419
1.7141,1007,3.2484
1.7184,0,0.0000
1.7227,30,0.0968
1.7271,1007,3.2484
1.7314,1006,3.2452
1.7357,996,3.2129
1.7399,0,0.0000
1.7443,763,2.4613
1.7486,1007,3.2484
1.7529,1004,3.2387
1.7572,239,0.7710
1.7615,0,0.0000
1.7657,1004,3.2387
1.7700,1004,3.2387
1.7746,1006,3.2452
1.7789,0,0.0000
1.7833,617,1.9903
1.7876,1004,3.2387
1.7919,1006,3.2452
1.7962,943,3.0419
1.8005,0,0.0000
1.8048,1003,3.2355
1.8090,1007,3.2484
1.8134,1006,3.2452
1.8177,0,0.0000
1.8220,0,0.0000
1.8263,1006,3.2452
1.8307,1006,3.2452
1.8351,1006,3.2452
1.8393,0,0.0000
1.8436,359,1.1581
1.8479,1007,3.2484
1.8522,1006,3.2452
1.8565,592,1.9097
1.8608,0,0.0000
1.8651,1005,3.2419
1.8697,1007,3.2484
1.8740,1006,3.2452
1.8783,0,0.0000
1.8826,0,0.0000
1.8870,1005,3.2419
1.8913,1006,3.2452
1.8956,881,2.8419
1.8999,0,0.0000
1.9042,834,2.6903
1.9085,1007,3.2484
1.9128,1005,3.2419
1.9173,0,0.0000
1.9216,0,0.0000
1.9259,1006,3.2452
1.9302,1006,3.2452
1.9345,1005,3.2419
1.9388,0,0.0000
1.9431,107,0.3452
1.9474,1005,3.2419
1.9517,1007,3.2484
1.9560,724,2.3355
1.9603,0,0.0000
1.9646,1005,3.2419
1.9689,1006,3.2452
1.9733,1006,3.2452
1.9776,0,0.0000
1.9819,0,0.0000
1.9862,1005,3.2419
1.9905,1003,3.2355
1.9948,1005,3.2419
1.9991,0,0.0000
2.0035,400,1.2903
2.0078,1000,3.2258
2.0121,1004,3.2387
2.0164,449,1.4484
2.0207,0,0.0000
2.0250,1006,3.2452
2.0293,1006,3.2452
2.0336,1006,3.2452
2.0379,0,0.0000
2.0422,0,0.0000
2.0465,1006,3.2452
2.0508,1005,3.2419
2.0552,1003,3.2355
2.0594,0,0.0000
2.0638,812,2.6194
2.0681,1006,3.2452
2.0724,1006,3.2452
2.0767,478,1.5419
2.0810,0,0.0000
2.0853,1004,3.2387
2.0896,1004,3.2387
2.0939,1006,3.2452
2.0982,0,0.0000
2.1026,296,0.9548
2.1068,1005,3.2419
2.1112,1006,3.2452
2.1155,994,3.2065
2.1198,0,0.0000
2.1241,1005,3.2419
2.1284,1004,3.2387
2.1327,1006,3.2452
2.1370,136,0.4387
2.1413,0,0.0000
2.1456,1006,3.2452
2.1499,1007,3.2484
2.1542,1007,3.2484
2.1586,0,0.0000
2.1629,749,2.4161
2.1672,1006,3.2452
2.1715,1006,3.2452
2.1758,935,3.0161
2.1801,0,0.0000
2.1844,1007,3.2484
2.1887,1004,3.2387
2.1930,1004,3.2387
2.1974,12,0.0387
2.2017,0,0.0000
2.2060,1005,3.2419
2.2104,1004,3.2387
2.2147,1004,3.2387
2.2191,0,0.0000
2.2235,574,1.8516
2.2279,1006,3.2452
2.2324,1006,3.2452
2.2367,119,0.3839
2.2411,0,0.0000
2.2455,1006,3.2452
2.2500,1006,3.2452
2.2545,1005,3.2419
2.2588,0,0.0000
2.2632,331,1.0677
2.2676,1006,3.2452
2.2719,1004,3.2387
2.2762,459,1.4806
2.2806,0,0.0000
2.2849,1007,3.2484
2.2893,1007,3.2484
2.2936,1003,3.2355
2.2979,0,0.0000
2.3022,295,0.9516
2.3066,1006,3.2452
2.3110,1006,3.2452
2.3154,988,3.1871
2.3197,0,0.0000
2.3241,1005,3.2419
2.3284,1005,3.2419
2.3328,1006,3.2452
2.3372,0,0.0000
2.3415,0,0.0000
2.3459,1005,3.2419
2.3502,1004,3.2387
2.3546,1003,3.2355
2.3590,0,0.0000
2.3636,721,2.3258
2.3680,1006,3.2452
2.3723,1006,3.2452
2.3767,92,0.2968
2.3810,0,0.0000
2.3853,1006,3.2452
2.3896,1006,3.2452
2.3940,1003,3.2355
2.3983,0,0.0000
2.4029,260,0.8387
2.4074,1006,3.2452
2.4120,1005,3.2419
2.4164,103,0.3323
2.4208,0,0.0000
2.4252,1006,3.2452
2.4295,1006,3.2452
2.4339,1005,3.2419
2.4382,0,0.0000
2.4425,280,0.9032
2.4470,1004,3.2387
2.4514,1006,3.2452
2.4559,654,2.1097
2.4602,0,0.0000
2.4647,1004,3.2387
2.4691,1006,3.2452
2.4737,1007,3.2484
2.4781,0,0.0000
2.4826,183,0.5903
2.4870,1005,3.2419
2.4914,1004,3.2387
2.4959,470,1.5161
2.5002,0,0.0000
2.5046,1005,3.2419
2.5089,1005,3.2419
2.5132,1006,3.2452
2.5176,0,0.0000
2.5219,73,0.2355
2.5263,1007,3.2484
2.5308,1004,3.2387
2.5352,922,2.9742
2.5395,0,0.0000
2.5438,1002,3.2323
2.5482,1005,3.2419
2.5527,1007,3.2484
2.5572,0,0.0000
2.5615,0,0.0000
2.5660,1005,3.2419
2.5704,1003,3.2355
2.5749,949,3.0613
2.5792,0,0.0000
2.5835,795,2.5645
2.5878,1007,3.2484
2.5923,1005,3.2419
2.5967,0,0.0000
2.6011,0,0.0000
2.6054,1004,3.2387
2.6097,1004,3.2387
2.6141,1005,3.2419
2.6184,0,0.0000
2.6228,416,1.3419
2.6271,1006,3.2452
2.6315,1005,3.2419
2.6359,437,1.4097
2.6403,0,0.0000
2.6447,1005,3.2419
2.6491,1006,3.2452
2.6535,1005,3.2419
2.6579,0,0.0000
2.6623,119,0.3839
2.6666,1004,3.2387
2.6710,1006,3.2452
2.6753,704,2.2710
2.6797,0,0.0000
2.6840,1004,3.2387
2.6884,1004,3.2387
2.6927,1004,3.2387
2.6971,0,0.0000
2.7014,0,0.0000
2.7058,1006,3.2452
2.7101,1006,3.2452
2.7145,1002,3.2323
2.7188,0,0.0000
2.7231,554,1.7871
2.7274,1004,3.2387
2.7318,1005,3.2419
2.7362,71,0.2290
2.7406,0,0.0000
2.7450,1004,3.2387
2.7492,1004,3.2387
2.7535,1004,3.2387
2.7579,0,0.0000
2.7622,156,0.5032
2.7666,1006,3.2452
2.7709,1006,3.2452
2.7753,665,2.1452
2.7796,0,0.0000
2.7839,1004,3.2387
2.7883,1005,3.2419
2.7926,1006,3.2452
2.7969,0,0.0000
2.8013,0,0.0000
2.8056,1007,3.2484
2.8099,1005,3.2419
2.8143,1001,3.2290
2.8186,0,0.0000
2.8229,529,1.7065
2.8273,1004,3.2387
2.8315,1005,3.2419
2.8358,332,1.0710
2.8401,0,0.0000
2.8444,1004,3.2387
2.8487,1006,3.2452
2.8529,1006,3.2452
2.8572,0,0.0000
2.8615,0,0.0000
2.8658,1007,3.2484
2.8701,1005,3.2419
2.8743,1001,3.2290
2.8786,0,0.0000
2.8828,512,1.6516
2.8871,1006,3.2452
2.8913,1006,3.2452
2.8955,522,1.6839
2.8999,0,0.0000
2.9042,1006,3.2452
2.9085,1006,3.2452
2.9127,1007,3.2484
2.9170,0,0.0000
2.9213,0,0.0000
2.9255,1004,3.2387
2.9298,1005,3.2419
2.9341,1002,3.2323
2.9384,0,0.0000
2.9426,705,2.2742
2.9469,1007,3.2484
2.9512,1005,3.2419
2.9555,637,2.0548
2.9598,0,0.0000
2.9641,1006,3.2452
2.9683,1006,3.2452
2.9726,1004,3.2387
2.9769,0,0.0000
2.9812,69,0.2226
2.9854,1004,3.2387
2.9897,1005,3.2419
2.9939,1004,3.2387
2.9982,0,0.0000
3.0025,552,1.7806
3.0067,1005,3.2419
3.0110,1005,3.2419
3.0152,736,2.3742
3.0194,0,0.0000
3.0237,1006,3.2452
3.0280,1006,3.2452
3.0322,1004,3.2387
3.0364,0,0.0000
3.0407,0,0.0000
3.0449,1004,3.2387
3.0491,1006,3.2452
3.0534,1006,3.2452
3.0577,0,0.0000
3.0619,174,0.5613
3.0662,1006,3.2452
3.0704,1006,3.2452
3.0746,852,2.7484
3.0788,0,0.0000
3.0831,880,2.8387
3.0875,1006,3.2452
3.0918,1004,3.2387
3.0962,0,0.0000
3.1007,0,0.0000
3.1051,1007,3.2484
3.1096,1003,3.2355
3.1141,1005,3.2419
3.1185,0,0.0000
3.1229,1006,3.2452
3.1274,1005,3.2419
3.1320,1005,3.2419
3.1364,78,0.2516
3.1407,124,0.4000
3.1451,1005,3.2419
3.1495,1004,3.2387
3.1539,1004,3.2387
3.1582,0,0.0000
3.1626,1004,3.2387
3.1670,1005,3.2419
3.1714,1006,3.2452
3.1758,568,1.8323
3.1802,0,0.0000
3.1846,1003,3.2355
3.1890,1006,3.2452
3.1934,1004,3.2387
3.1978,0,0.0000
3.2022,664,2.1419
3.2066,1007,3.2484
3.2111,1007,3.2484
3.2155,450,1.4516
3.2199,0,0.0000
3.2243,1006,3.2452
3.2287,1007,3.2484
3.2331,1006,3.2452
3.2376,0,0.0000
3.2420,566,1.8258
3.2464,1004,3.2387
3.2508,1006,3.2452
3.2552,607,1.9581
3.2596,0,0.0000
3.2641,1006,3.2452
3.2684,1007,3.2484
3.2728,1005,3.2419
3.2773,0,0.0000
3.2817,241,0.7774
3.2865,1005,3.2419
3.2909,1006,3.2452
3.2953,381,1.2290
3.2997,0,0.0000
3.3041,1004,3.2387
3.3086,1005,3.2419
3.3130,1004,3.2387
3.3174,0,0.0000
3.3218,334,1.0774
3.3261,1006,3.2452
3.3304,1005,3.2419
3.3348,768,2.4774
3.3391,0,0.0000
3.3435,1005,3.2419
3.3479,1007,3.2484
3.3522,1006,3.2452
3.3565,0,0.0000
3.3609,0,0.0000
3.3653,1004,3.2387
3.3696,1006,3.2452
3.3740,1002,3.2323
3.3783,0,0.0000
3.3827,1005,3.2419
3.3870,1005,3.2419
3.3914,1006,3.2452
3.3957,337,1.0871
3.4001,0,0.0000
3.4044,1007,3.2484
3.4088,1004,3.2387
3.4130,1006,3.2452
3.4173,0,0.0000
3.4216,415,1.3387
3.4259,1006,3.2452
3.4302,1005,3.2419
3.4345,825,2.6613
3.4389,0,0.0000
3.4432,1005,3.2419
3.4475,1004,3.2387
3.4518,1006,3.2452
3.4561,0,0.0000
3.4604,0,0.0000
3.4647,1006,3.2452
3.4689,1005,3.2419
3.4731,1006,3.2452
3.4773,0,0.0000
3.4815,134,0.4323
3.4857,1006,3.2452
3.4899,1006,3.2452
3.4942,856,2.7613
3.4984,0,0.0000
3.5026,792,2.5548
3.5068,1006,3.2452
3.5111,1004,3.2387
3.5153,136,0.4387
3.5197,0,0.0000
3.5242,1006,3.2452
3.5287,1005,3.2419
3.5332,1004,3.2387
3.5376,0,0.0000
3.5421,477,1.5387
3.5465,1006,3.2452
3.5509,1005,3.2419
3.5553,105,0.3387
3.5597,0,0.0000
3.5641,1007,3.2484
3.5685,1006,3.2452
3.5728,1004,3.2387
3.5772,0,0.0000
3.5816,315,1.0161
3.5860,1006,3.2452
3.5903,1004,3.2387
3.5947,619,1.9968
3.5990,0,0.0000
3.6035,1005,3.2419
3.6079,1006,3.2452
3.6122,1005,3.2419
3.6166,0,0.0000
3.6210,107,0.3452
3.6254,1005,3.2419
3.6297,1005,3.2419
3.6341,846,2.7290
3.6385,0,0.0000
3.6429,1002,3.2323
3.6473,1006,3.2452
3.6517,1004,3.2387
3.6560,0,0.0000
3.6604,0,0.0000
3.6649,1005,3.2419
3.6693,1007,3.2484
3.6737,995,3.2097
3.6781,0,0.0000
3.6825,1004,3.2387
3.6869,1006,3.2452
3.6913,1007,3.2484
3.6957,15,0.0484
3.7001,0,0.0000
3.7045,1007,3.2484
3.7089,1004,3.2387
3.7133,1005,3.2419
3.7176,0,0.0000
3.7219,903,2.9129
3.7263,1006,3.2452
3.7306,1006,3.2452
3.7350,421,1.3581
3.7393,0,0.0000
3.7439,1004,3.2387
3.7483,1004,3.2387
3.7527,1004,3.2387
3.7571,0,0.0000
3.7615,413,1.3323
3.7658,1004,3.2387
3.7702,1004,3.2387
3.7745,580,1.8710
3.7789,0,0.0000
3.7832,1006,3.2452
3.7876,1005,3.2419
3.7919,1006,3.2452
3.7962,0,0.0000
3.8006,0,0.0000
3.8049,1004,3.2387
3.8092,1005,3.2419
3.8136,958,3.0903
3.8179,0,0.0000
3.8223,1006,3.2452
3.8266,1005,3.2419
3.8310,1003,3.2355
3.8353,270,0.8710
3.8397,0,0.0000
3.8440,1006,3.2452
3.8484,1004,3.2387
3.8528,1005,3.2419
3.8573,0,0.0000
3.8617,482,1.5548
3.8661,1006,3.2452
3.8705,1006,3.2452
3.8749,306,0.9871
3.8794,0,0.0000
3.8838,1000,3.2258
3.8882,1006,3.2452
3.8927,1006,3.2452
3.8971,0,0.0000
3.9015,351,1.1323
3.9059,1006,3.2452
3.9103,1004,3.2387
3.9146,411,1.3258
3.9190,0,0.0000
3.9234,1005,3.2419
3.9278,1003,3.2355
3.9322,1005,3.2419
3.9366,0,0.0000
3.9409,399,1.2871
3.9453,1006,3.2452
3.9496,1006,3.2452
3.9540,840,2.7097
3.9584,0,0.0000
3.9628,1004,3.2387
3.9672,1006,3.2452
3.9715,1007,3.2484
3.9759,0,0.0000
3.9803,0,0.0000
3.9846,1007,3.2484
3.9891,1007,3.2484
3.9936,860,2.7742
3.9981,0,0.0000
4.0026,1004,3.2387
4.0070,1004,3.2387
4.0114,1005,3.2419
4.0158,0,0.0000
4.0202,0,0.0000
4.0246,1005,3.2419
4.0291,1007,3.2484
4.0337,873,2.8161
4.0382,0,0.0000
4.0427,1004,3.2387
4.0471,1006,3.2452
4.0514,1006,3.2452
4.0557,0,0.0000
4.0601,32,0.1032
4.0645,1004,3.2387
4.0688,1006,3.2452
4.0731,1003,3.2355
4.0776,0,0.0000
4.0820,862,2.7806
4.0865,1006,3.2452
4.0909,1005,3.2419
4.0954,0,0.0000
4.0998,0,0.0000
4.1042,1005,3.2419
4.1087,1004,3.2387
4.1132,962,3.1032
4.1176,0,0.0000
4.1221,851,2.7452
4.1265,1004,3.2387
4.1309,1006,3.2452
4.1353,0,0.0000
4.1397,0,0.0000
4.1441,1007,3.2484
4.1485,1006,3.2452
4.1529,1004,3.2387
4.1573,0,0.0000
4.1617,1004,3.2387
4.1661,1005,3.2419
4.1704,1006,3.2452
4.1748,422,1.3613
4.1793,0,0.0000
4.1836,1006,3.2452
4.1880,1006,3.2452
4.1924,1004,3.2387
4.1967,0,0.0000
4.2011,351,1.1323
4.2055,1005,3.2419
4.2099,1005,3.2419
4.2142,433,1.3968
4.2185,0,0.0000
4.2229,1007,3.2484
4.2273,1005,3.2419
4.2317,1006,3.2452
4.2361,0,0.0000
4.2405,252,0.8129
4.2449,1006,3.2452
4.2492,1007,3.2484
4.2535,954,3.0774
4.2580,0,0.0000
4.2625,1004,3.2387
4.2670,1004,3.2387
4.2714,1006,3.2452
4.2758,0,0.0000
4.2802,147,0.4742
4.2846,1007,3.2484
4.2890,1004,3.2387
4.2936,834,2.6903
4.2981,0,0.0000
4.3025,1004,3.2387
4.3070,1007,3.2484
4.3114,1007,3.2484
4.3157,0,0.0000
4.3200,0,0.0000
4.3244,1006,3.2452
4.3287,1005,3.2419
4.3331,939,3.0290
4.3375,0,0.0000
4.3418,990,3.1935
4.3463,1006,3.2452
4.3506,1006,3.2452
4.3551,0,0.0000
4.3594,0,0.0000
4.3638,1007,3.2484
4.3682,1004,3.2387
4.3726,1004,3.2387
4.3770,0,0.0000
4.3813,673,2.1710
4.3857,1007,3.2484
4.3901,1006,3.2452
4.3944,262,0.8452
4.3988,0,0.0000
4.4032,1004,3.2387
4.4076,1004,3.2387
4.4120,1004,3.2387
4.4163,0,0.0000
4.4207,219,0.7065
4.4251,1004,3.2387
4.4295,1004,3.2387
4.4338,479,1.5452
4.4382,0,0.0000
4.4426,1005,3.2419
4.4470,1007,3.2484
4.4513,1004,3.2387
4.4557,0,0.0000
4.4601,31,0.1000
4.4645,1007,3.2484
4.4689,1004,3.2387
4.4734,783,2.5258
4.4778,0,0.0000
4.4822,1007,3.2484
4.4866,1007,3.2484
4.4910,1005,3.2419
4.4953,0,0.0000
4.4997,0,0.0000
4.5039,1006,3.2452
4.5081,1006,3.2452
4.5123,1006,3.2452
4.5165,0,0.0000
4.5206,365,1.1774
4.5248,1004,3.2387
4.5290,1004,3.2387
4.5332,870,2.8065
4.5374,0,0.0000
4.5415,721,2.3258
4.5457,1006,3.2452
4.5499,1005,3.2419
4.5541,198,0.6387
4.5584,0,0.0000
4.5627,1004,3.2387
4.5670,1005,3.2419
4.5713,1007,3.2484
4.5756,0,0.0000
4.5800,133,0.4290
4.5843,1007,3.2484
4.5886,1004,3.2387
4.5929,955,3.0806
4.5972,0,0.0000
4.6013,1005,3.2419
4.6055,1006,3.2452
4.6097,1006,3.2452
4.6139,676,2.1806
4.6181,0,0.0000
4.6222,1005,3.2419
4.6264,1007,3.2484
4.6306,1006,3.2452
4.6348,0,0.0000
4.6390,0,0.0000
4.6431,1006,3.2452
4.6473,1003,3.2355
4.6515,1003,3.2355
4.6557,0,0.0000
4.6599,0,0.0000
4.6640,1006,3.2452
4.6682,1004,3.2387
4.6724,1001,3.2290
4.6766,0,0.0000
4.6808,460,1.4839
4.6849,1006,3.2452
4.6891,1006,3.2452
4.6933,764,2.4645
4.6975,0,0.0000
4.7017,1002,3.2323
4.7059,1007,3.2484
4.7100,1006,3.2452
4.7142,232,0.7484
4.7184,0,0.0000
4.7226,1005,3.2419
4.7268,1006,3.2452
4.7309,1004,3.2387
4.7351,0,0.0000
4.7393,0,0.0000
4.7435,1006,3.2452
4.7477,1005,3.2419
4.7518,1005,3.2419
4.7560,0,0.0000
4.7602,756,2.4387
4.7644,1005,3.2419
4.7686,1006,3.2452
4.7727,1003,3.2355
4.7769,0,0.0000
4.7811,1000,3.2258
4.7853,1006,3.2452
4.7894,1007,3.2484
4.7936,674,2.1742
4.7978,0,0.0000
4.8020,1006,3.2452
4.8062,1006,3.2452
4.8103,1004,3.2387
4.8145,346,1.1161
4.8187,0,0.0000
4.8229,1004,3.2387
4.8271,1006,3.2452
4.8312,1004,3.2387
4.8354,0,0.0000
4.8396,0,0.0000
4.8438,1006,3.2452
4.8480,1006,3.2452
4.8521,1003,3.2355
4.8563,0,0.0000
4.8605,313,1.0097
4.8647,1005,3.2419
4.8688,1005,3.2419
4.8730,708,2.2839
4.8772,0,0.0000
4.8814,1003,3.2355
4.8856,1007,3.2484
4.8897,1006,3.2452
4.8939,261,0.8419
4.8981,0,0.0000
4.9023,1004,3.2387
4.9065,1006,3.2452
4.9106,1004,3.2387
4.9148,0,0.0000
4.9190,0,0.0000
4.9232,1005,3.2419
4.9274,1004,3.2387
4.9316,1004,3.2387
4.9361,0,0.0000
4.9404,376,1.2129
4.9446,1004,3.2387
4.9487,1006,3.2452
4.9529,779,2.5129
4.9571,0,0.0000
4.9613,870,2.8065
4.9655,1007,3.2484
4.9696,1005,3.2419
4.9738,288,0.9290
4.9780,0,0.0000
4.9822,1006,3.2452
4.9863,1006,3.2452
4.9905,1006,3.2452
4.9947,0,0.0000
4.9989,41,0.1323
5.0031,1007,3.2484
5.0073,1004,3.2387
5.0122,1005,3.2419
5.0165,0,0.0000
5.0208,997,3.2161
5.0250,1006,3.2452
5.0292,1004,3.2387
5.0335,520,1.6774
5.0377,0,0.0000
5.0419,1006,3.2452
5.0461,1006,3.2452
5.0503,1004,3.2387
5.0544,0,0.0000
5.0586,0,0.0000
5.0629,1006,3.2452
5.0671,1005,3.2419
5.0714,1005,3.2419
5.0756,0,0.0000
5.0799,726,2.3419
5.0842,1006,3.2452
5.0884,1006,3.2452
5.0927,990,3.1935
5.0969,0,0.0000
5.1012,1005,3.2419
5.1055,1007,3.2484
5.1098,1006,3.2452
5.1140,54,0.1742
5.1183,0,0.0000
5.1225,1006,3.2452
5.1268,1005,3.2419
5.1311,1003,3.2355
5.1353,0,0.0000
5.1396,226,0.7290
5.1439,1004,3.2387
5.1482,1006,3.2452
5.1524,953,3.0742
5.1567,0,0.0000
5.1609,854,2.7548
5.1653,1005,3.2419
5.1696,1004,3.2387
5.1739,129,0.4161
5.1782,0,0.0000
5.1826,1006,3.2452
5.1869,1005,3.2419
5.1912,1004,3.2387
5.1956,0,0.0000
5.1999,227,0.7323
5.2042,1006,3.2452
5.2086,1006,3.2452
5.2129,651,2.1000
5.2172,0,0.0000
5.2215,1005,3.2419
5.2259,1006,3.2452
5.2302,1003,3.2355
5.2345,0,0.0000
5.2388,0,0.0000
5.2432,1006,3.2452
5.2475,1006,3.2452
5.2518,1004,3.2387
5.2562,0,0.0000
5.2605,1004,3.2387
5.2648,1005,3.2419
5.2693,1004,3.2387
5.2736,541,1.7452
5.2779,0,0.0000
5.2822,1007,3.2484
5.2865,1005,3.2419
5.2908,1006,3.2452
5.2951,0,0.0000
5.2994,98,0.3161
5.3037,1005,3.2419
5.3081,1006,3.2452
5.3124,848,2.7355
5.3166,0,0.0000
5.3209,1002,3.2323
5.3252,1005,3.2419
5.3295,1005,3.2419
5.3338,79,0.2548
5.3381,0,0.0000
5.3424,1006,3.2452
5.3467,1007,3.2484
5.3510,1005,3.2419
5.3553,0,0.0000
5.3596,609,1.9645
5.3639,1006,3.2452
5.3682,1006,3.2452
5.3726,919,2.9645
5.3769,0,0.0000
5.3812,1005,3.2419
5.3855,1006,3.2452
5.3899,1007,3.2484
5.3942,0,0.0000
5.3985,0,0.0000
5.4029,1006,3.2452
5.4072,1006,3.2452
5.4115,1003,3.2355
5.4159,0,0.0000
5.4202,884,2.8516
5.4245,1006,3.2452
5.4289,1005,3.2419
5.4332,394,1.2710
5.4375,0,0.0000
5.4418,1005,3.2419
5.4462,1005,3.2419
5.4505,1005,3.2419
5.4549,0,0.0000
5.4592,0,0.0000
5.4635,1004,3.2387
5.4678,1005,3.2419
5.4722,847,2.7323
5.4766,0,0.0000
5.4810,1004,3.2387
5.4852,1004,3.2387
5.4895,1006,3.2452
5.4938,0,0.0000
5.4981,0,0.0000
5.5024,1004,3.2387
5.5067,1006,3.2452
5.5110,1006,3.2452
5.5154,0,0.0000
5.5197,495,1.5968
5.5239,1005,3.2419
5.5282,1006,3.2452
5.5325,673,2.1710
5.5368,0,0.0000
5.5411,1004,3.2387
5.5454,1004,3.2387
5.5497,1005,3.2419
5.5540,0,0.0000
5.5583,0,0.0000
5.5626,1006,3.2452
5.5669,1006,3.2452
5.5712,1005,3.2419
5.5755,0,0.0000
5.5799,1005,3.2419
5.5842,1006,3.2452
5.5885,1005,3.2419
5.5928,795,2.5645
5.5972,0,0.0000
5.6021,1006,3.2452
5.6065,1005,3.2419
5.6109,1006,3.2452
5.6152,0,0.0000
5.6196,411,1.3258
5.6239,1006,3.2452
5.6282,1006,3.2452
5.6326,652,2.1032
5.6369,0,0.0000
5.6412,1005,3.2419
5.6455,1005,3.2419
5.6499,1006,3.2452
5.6542,0,0.0000
5.6586,276,0.8903
5.6629,1004,3.2387
5.6672,1006,3.2452
5.6715,1003,3.2355
5.6759,0,0.0000
5.6803,859,2.7710
5.6846,1007,3.2484
5.6889,1005,3.2419
5.6932,232,0.7484
5.6975,0,0.0000
5.7018,1006,3.2452
5.7061,1005,3.2419
5.7104,1006,3.2452
5.7147,0,0.0000
5.7190,96,0.3097
5.7233,1005,3.2419
5.7276,1004,3.2387
5.7319,887,2.8613
5.7362,0,0.0000
5.7405,1000,3.2258
5.7448,1006,3.2452
5.7491,1006,3.2452
5.7534,20,0.0645
5.7577,0,0.0000
5.7620,1006,3.2452
5.7663,1007,3.2484
5.7706,1004,3.2387
5.7749,0,0.0000
5.7792,992,3.2000
5.7836,1006,3.2452
5.7879,1005,3.2419
5.7922,914,2.9484
5.7966,0,0.0000
5.8009,1005,3.2419
5.8053,1005,3.2419
5.8096,1005,3.2419
5.8139,0,0.0000
5.8182,0,0.0000
5.8226,1006,3.2452
5.8269,1005,3.2419
5.8312,1005,3.2419
5.8355,0,0.0000
5.8399,658,2.1226
5.8442,1005,3.2419
5.8485,1007,3.2484
5.8529,263,0.8484
5.8572,0,0.0000
5.8615,1006,3.2452
5.8659,1005,3.2419
5.8702,1004,3.2387
5.8745,0,0.0000
5.8788,55,0.1774
5.8832,1006,3.2452
5.8876,1004,3.2387
5.8920,762,2.4581
5.8962,0,0.0000
5.9005,1004,3.2387
5.9049,1006,3.2452
5.9092,1006,3.2452
5.9135,0,0.0000
5.9178,0,0.0000
5.9221,1006,3.2452
5.9264,1005,3.2419
5.9307,1005,3.2419
5.9350,0,0.0000
5.9392,611,1.9710
5.9435,1006,3.2452
5.9478,1006,3.2452
5.9521,874,2.8194
5.9564,0,0.0000
5.9607,1006,3.2452
5.9650,1003,3.2355
5.9693,1005,3.2419
5.9736,20,0.0645
5.9779,76,0.2452
5.9822,1005,3.2419
5.9865,1007,3.2484
5.9909,1004,3.2387
5.9952,0,0.0000
5.9995,653,2.1065
6.0038,1006,3.2452
6.0082,1006,3.2452
6.0125,447,1.4419
6.0169,0,0.0000
6.0212,1006,3.2452
6.0255,1006,3.2452
6.0298,1005,3.2419
6.0342,0,0.0000
6.0385,268,0.8645
6.0428,1005,3.2419
6.0472,1005,3.2419
6.0515,984,3.1742
6.0558,0,0.0000
6.0601,1004,3.2387
6.0645,1006,3.2452
6.0688,1005,3.2419
6.0731,0,0.0000
6.0775,0,0.0000
6.0818,1006,3.2452
6.0861,1006,3.2452
6.0904,1005,3.2419
6.0949,0,0.0000
6.0992,705,2.2742
6.1035,1005,3.2419
6.1078,1007,3.2484
6.1121,664,2.1419
6.1166,0,0.0000
6.1210,1006,3.2452
6.1255,1005,3.2419
6.1300,1004,3.2387
6.1344,0,0.0000
6.1388,372,1.2000
6.1431,1004,3.2387
6.1475,1005,3.2419
6.1518,706,2.2774
6.1562,0,0.0000
6.1606,1004,3.2387
6.1649,1006,3.2452
6.1692,1006,3.2452
6.1736,0,0.0000
6.1780,75,0.2419
6.1824,1006,3.2452
6.1868,1006,3.2452
6.1911,1003,3.2355
6.1956,0,0.0000
6.1999,1002,3.2323
6.2040,1007,3.2484
6.2082,1007,3.2484
6.2124,345,1.1129
6.2166,0,0.0000
6.2208,1005,3.2419
6.2250,1004,3.2387
6.2291,1006,3.2452
6.2334,0,0.0000
6.2375,0,0.0000
6.2417,1004,3.2387
6.2459,1006,3.2452
6.2501,1007,3.2484
6.2543,0,0.0000
6.2585,149,0.4806
6.2626,1007,3.2484
6.2668,1006,3.2452
6.2710,1000,3.2258
6.2752,0,0.0000
6.2794,651,2.1000
6.2836,1005,3.2419
6.2877,1005,3.2419
6.2919,715,2.3065
6.2961,0,0.0000
6.3003,1004,3.2387
6.3045,1007,3.2484
6.3087,1005,3.2419
6.3129,0,0.0000
6.3171,0,0.0000
6.3212,1006,3.2452
6.3254,1003,3.2355
6.3296,1006,3.2452
6.3338,0,0.0000
6.3380,153,0.4935
6.3421,1007,3.2484
6.3463,1005,3.2419
6.3505,1005,3.2419
6.3547,0,0.0000
6.3589,421,1.3581
6.3631,1005,3.2419
6.3673,1004,3.2387
6.3714,863,2.7839
6.3756,0,0.0000
6.3798,949,3.0613
6.3840,1005,3.2419
6.3882,1006,3.2452
6.3923,228,0.7355
6.3965,0,0.0000
6.4007,1007,3.2484
6.4049,1007,3.2484
6.4091,1004,3.2387
6.4134,0,0.0000
6.4176,0,0.0000
6.4217,1006,3.2452
6.4259,1004,3.2387
6.4301,1004,3.2387
6.4343,0,0.0000
6.4385,180,0.5806
6.4426,1005,3.2419
6.4468,1004,3.2387
6.4510,965,3.1129
6.4552,0,0.0000
6.4594,933,3.0097
6.4636,1007,3.2484
6.4678,1005,3.2419
6.4719,640,2.0645
6.4761,0,0.0000
6.4803,1006,3.2452
6.4845,1006,3.2452
6.4887,1006,3.2452
6.4928,144,0.4645
6.4970,0,0.0000
6.5012,1007,3.2484
6.5054,1005,3.2419
6.5096,1006,3.2452
6.5138,0,0.0000
6.5180,429,1.3839
6.5221,1004,3.2387
6.5263,1007,3.2484
6.5305,1003,3.2355
6.5347,0,0.0000
6.5389,755,2.4355
6.5431,1006,3.2452
6.5472,1006,3.2452
6.5514,889,2.8677
6.5556,0,0.0000
6.5598,1003,3.2355
6.5640,1007,3.2484
6.5682,1003,3.2355
6.5723,472,1.5226
6.5765,0,0.0000
6.5807,1005,3.2419
6.5849,1006,3.2452
6.5891,1004,3.2387
6.5933,0,0.0000
6.5975,0,0.0000
6.6016,1007,3.2484
6.6058,1007,3.2484
6.6100,1006,3.2452
6.6142,0,0.0000
6.6184,220,0.7097
6.6226,1005,3.2419
6.6268,1004,3.2387
6.6309,927,2.9903
6.6351,0,0.0000
6.6393,757,2.4419
6.6435,1006,3.2452
6.6477,1006,3.2452
6.6518,475,1.5323
6.6560,0,0.0000
6.6602,1005,3.2419
6.6644,1006,3.2452
6.6686,1004,3.2387
6.6728,308,0.9935
6.6769,510,1.6452
6.6811,1005,3.2419
6.6853,1006,3.2452
6.6895,1006,3.2452
6.6937,0,0.0000
6.6978,721,2.3258
6.7020,1007,3.2484
6.7062,1007,3.2484
6.7104,1003,3.2355
6.7146,0,0.0000
6.7188,1006,3.2452
6.7230,1006,3.2452
6.7272,1004,3.2387
6.7313,886,2.8581
6.7355,0,0.0000
6.7397,1006,3.2452
6.7439,1006,3.2452
6.7481,1005,3.2419
6.7523,291,0.9387
6.7564,0,0.0000
6.7606,1005,3.2419
6.7648,1005,3.2419
6.7690,1006,3.2452
6.7732,0,0.0000
6.7774,0,0.0000
6.7816,1005,3.2419
6.7858,1004,3.2387
6.7900,1004,3.2387
6.7942,0,0.0000
6.7983,277,0.8935
6.8025,1006,3.2452
6.8067,1005,3.2419
6.8109,836,2.6968
6.8151,0,0.0000
6.8193,908,2.9290
6.8235,1004,3.2387
6.8276,1006,3.2452
6.8318,416,1.3419
6.8360,0,0.0000
6.8402,1004,3.2387
6.8444,1005,3.2419
6.8485,1007,3.2484
6.8527,0,0.0000
6.8569,0,0.0000
6.8611,1006,3.2452
6.8653,1007,3.2484
6.8695,1005,3.2419
6.8736,0,0.0000
6.8778,368,1.1871
6.8820,1006,3.2452
6.8862,1004,3.2387
6.8904,998,3.2194
6.8946,0,0.0000
6.8987,515,1.6613
6.9030,1005,3.2419
6.9072,1007,3.2484
6.9116,400,1.2903
6.9159,0,0.0000
6.9203,1006,3.2452
6.9246,1006,3.2452
6.9290,1006,3.2452
6.9333,0,0.0000
6.9377,3,0.0097
6.9420,1006,3.2452
6.9464,1006,3.2452
6.9507,865,2.7903
6.9550,0,0.0000
6.9594,1003,3.2355
6.9637,1006,3.2452
6.9681,1005,3.2419
6.9724,0,0.0000
6.9768,0,0.0000
6.9811,1005,3.2419
6.9855,1006,3.2452
6.9898,1003,3.2355
6.9941,0,0.0000
6.9985,650,2.0968
7.0028,1006,3.2452
7.0072,1005,3.2419
7.0115,548,1.7677
7.0158,0,0.0000
7.0201,1006,3.2452
7.0244,1005,3.2419
7.0287,1004,3.2387
7.0330,0,0.0000
7.0373,0,0.0000
7.0416,1004,3.2387
7.0459,1006,3.2452
7.0502,1000,3.2258
7.0545,0,0.0000
7.0588,671,2.1645
7.0631,1005,3.2419
7.0674,1007,3.2484
7.0717,185,0.5968
7.0760,0,0.0000
7.0803,1004,3.2387
7.0846,1006,3.2452
7.0889,1004,3.2387
7.0932,0,0.0000
7.0975,446,1.4387
7.1018,1006,3.2452
7.1061,1006,3.2452
7.1104,993,3.2032
7.1148,0,0.0000
7.1191,1005,3.2419
7.1234,1006,3.2452
7.1277,1002,3.2323
7.1320,49,0.1581
7.1363,0,0.0000
7.1406,1005,3.2419
7.1449,1004,3.2387
7.1492,1004,3.2387
7.1535,0,0.0000
7.1578,227,0.7323
7.1621,1005,3.2419
7.1664,1005,3.2419
7.1708,658,2.1226
7.1751,0,0.0000
7.1794,1003,3.2355
7.1836,1006,3.2452
7.1880,1005,3.2419
7.1923,0,0.0000
7.1966,0,0.0000
7.2009,1006,3.2452
7.2052,1005,3.2419
7.2095,1004,3.2387
7.2138,0,0.0000
7.2181,392,1.2645
7.2224,1006,3.2452
7.2267,1004,3.2387
7.2310,494,1.5935
7.2353,0,0.0000
7.2396,1004,3.2387
7.2439,1005,3.2419
7.2482,1004,3.2387
7.2525,0,0.0000
7.2568,67,0.2161
7.2611,1006,3.2452
7.2654,1005,3.2419
7.2697,1002,3.2323
7.2741,0,0.0000
7.2783,555,1.7903
7.2826,1006,3.2452
7.2869,1006,3.2452
7.2912,231,0.7452
7.2955,0,0.0000
7.2998,1006,3.2452
7.3041,1005,3.2419
7.3084,1006,3.2452
7.3127,0,0.0000
7.3171,0,0.0000
7.3214,1004,3.2387
7.3256,1006,3.2452
7.3300,921,2.9710
7.3343,0,0.0000
7.3386,653,2.1065
7.3429,1006,3.2452
7.3472,1007,3.2484
7.3515,0,0.0000
7.3558,0,0.0000
7.3601,1005,3.2419
7.3644,1005,3.2419
7.3687,1004,3.2387
7.3730,0,0.0000
7.3773,154,0.4968
7.3816,1006,3.2452
7.3859,1003,3.2355
7.3902,786,2.5355
7.3945,0,0.0000
7.3988,1003,3.2355
7.4031,1007,3.2484
7.4074,1005,3.2419
7.4117,0,0.0000
7.4161,0,0.0000
7.4203,1007,3.2484
7.4246,1006,3.2452
7.4289,1004,3.2387
7.4332,0,0.0000
7.4380,469,1.5129
7.4423,1004,3.2387
7.4466,1000,3.2258
7.4509,225,0.7258
7.4552,0,0.0000
7.4595,1006,3.2452
7.4638,1005,3.2419
7.4681,1004,3.2387
7.4724,0,0.0000
7.4767,0,0.0000
7.4810,1005,3.2419
7.4853,1004,3.2387
7.4896,907,2.9258
7.4939,0,0.0000
7.4982,552,1.7806
7.5025,1004,3.2387
7.5068,1006,3.2452
7.5112,0,0.0000
7.5155,0,0.0000
7.5198,1006,3.2452
7.5241,1005,3.2419
7.5284,1004,3.2387
7.5327,0,0.0000
7.5370,0,0.0000
7.5413,1005,3.2419
7.5456,1005,3.2419
7.5499,696,2.2452
7.5542,0,0.0000
7.5585,1005,3.2419
7.5628,1007,3.2484
7.5671,1004,3.2387
7.5714,0,0.0000
7.5757,0,0.0000
7.5800,1006,3.2452
7.5843,1006,3.2452
7.5886,1002,3.2323
7.5929,0,0.0000
7.5972,153,0.4935
7.6015,1006,3.2452
7.6058,1005,3.2419
7.6101,633,2.0419
7.6144,0,0.0000
7.6187,1006,3.2452
7.6231,1004,3.2387
7.6274,1006,3.2452
7.6317,0,0.0000
7.6360,0,0.0000
7.6403,1005,3.2419
7.6446,1005,3.2419
7.6489,1003,3.2355
7.6532,0,0.0000
7.6575,428,1.3806
7.6618,1004,3.2387
7.6661,1005,3.2419
7.6704,475,1.5323
7.6747,0,0.0000
7.6790,1005,3.2419
7.6834,1006,3.2452
7.6877,1006,3.2452
7.6920,0,0.0000
7.6963,496,1.6000
7.7006,1006,3.2452
7.7049,1005,3.2419
7.7092,1003,3.2355
7.7135,0,0.0000
7.7178,714,2.3032
7.7221,1005,3.2419
7.7264,1005,3.2419
7.7307,260,0.8387
7.7350,0,0.0000
7.7393,1005,3.2419
7.7436,1004,3.2387
7.7479,1006,3.2452
7.7522,0,0.0000
7.7565,0,0.0000
7.7608,1007,3.2484
7.7651,1006,3.2452
7.7695,855,2.7581
7.7738,0,0.0000
7.7781,612,1.9742
7.7824,1006,3.2452
7.7867,1006,3.2452
7.7910,0,0.0000
7.7953,0,0.0000
7.7996,1006,3.2452
7.8039,1005,3.2419
7.8082,1006,3.2452
7.8125,0,0.0000
7.8168,179,0.5774
7.8211,1004,3.2387
7.8254,1004,3.2387
7.8297,748,2.4129
7.8340,0,0.0000
7.8383,959,3.0935
7.8426,1006,3.2452
7.8470,1004,3.2387
7.8512,0,0.0000
7.8555,0,0.0000
7.8598,1006,3.2452
7.8641,1007,3.2484
7.8684,1004,3.2387
7.8727,0,0.0000
7.8771,303,0.9774
7.8813,1007,3.2484
7.8857,1006,3.2452
7.8900,557,1.7968
7.8943,0,0.0000
7.8986,1007,3.2484
7.9029,1004,3.2387
7.9072,1007,3.2484
7.9115,0,0.0000
7.9158,0,0.0000
7.9201,1006,3.2452
7.9244,1005,3.2419
7.9287,1001,3.2290
7.9330,0,0.0000
7.9373,387,1.2484
7.9416,1005,3.2419
7.9459,1006,3.2452
7.9502,352,1.1355
7.9545,0,0.0000
7.9588,1004,3.2387
7.9631,1006,3.2452
7.9674,1006,3.2452
7.9717,0,0.0000
7.9760,0,0.0000
7.9803,1006,3.2452
7.9846,1006,3.2452
7.9890,992,3.2000
7.9933,0,0.0000
7.9976,562,1.8129
8.0019,1005,3.2419
8.0062,1004,3.2387
8.0105,153,0.4935
8.0149,0,0.0000
8.0192,1006,3.2452
8.0235,1005,3.2419
8.0278,1006,3.2452
8.0321,0,0.0000
8.0364,45,0.1452
8.0407,1005,3.2419
8.0450,1005,3.2419
8.0493,805,2.5968
8.0536,0,0.0000
8.0579,823,2.6548
8.0622,1005,3.2419
8.0665,1006,3.2452
8.0708,0,0.0000
8.0751,0,0.0000
8.0794,1004,3.2387
8.0837,1004,3.2387
8.0880,1004,3.2387
8.0923,0,0.0000
8.0966,105,0.3387
8.1009,1005,3.2419
8.1052,1006,3.2452
8.1095,629,2.0290
8.1139,0,0.0000
8.1182,959,3.0935
8.1225,1004,3.2387
8.1268,1005,3.2419
8.1311,0,0.0000
8.1354,0,0.0000
8.1397,1004,3.2387
8.1440,1005,3.2419
8.1483,1005,3.2419
8.1526,0,0.0000
8.1569,800,2.5806
8.1612,1006,3.2452
8.1655,1006,3.2452
8.1698,646,2.0839
8.1741,0,0.0000
8.1784,1006,3.2452
8.1827,1004,3.2387
8.1870,1007,3.2484
8.1913,0,0.0000
8.1957,181,0.5839
8.2000,1006,3.2452
8.2043,1007,3.2484
8.2086,1003,3.2355
8.2129,0,0.0000
8.2172,900,2.9032
8.2215,1006,3.2452
8.2258,1006,3.2452
8.2301,432,1.3935
8.2344,0,0.0000
8.2387,1005,3.2419
8.2430,1007,3.2484
8.2473,1003,3.2355
8.2516,0,0.0000
8.2559,107,0.3452
8.2602,1004,3.2387
8.2645,1005,3.2419
8.2688,996,3.2129
8.2731,0,0.0000
8.2774,1005,3.2419
8.2817,1006,3.2452
8.2860,1004,3.2387
8.2903,306,0.9871
8.2946,0,0.0000
8.2990,1006,3.2452
8.3033,1005,3.2419
8.3076,1003,3.2355
8.3119,0,0.0000
8.3162,209,0.6742
8.3206,1006,3.2452
8.3249,1004,3.2387
8.3292,816,2.6323
8.3335,0,0.0000
8.3378,1005,3.2419
8.3421,1007,3.2484
8.3464,1002,3.2323
8.3507,0,0.0000
8.3550,0,0.0000
8.3593,1006,3.2452
8.3636,1007,3.2484
8.3679,1004,3.2387
8.3722,0,0.0000
8.3765,708,2.2839
8.3808,1006,3.2452
8.3851,1005,3.2419
8.3894,773,2.4935
8.3937,0,0.0000
8.3981,1005,3.2419
8.4023,1006,3.2452
8.4066,1005,3.2419
8.4109,0,0.0000
8.4152,0,0.0000
8.4195,1005,3.2419
8.4239,1005,3.2419
8.4282,1004,3.2387
8.4325,0,0.0000
8.4368,461,1.4871
8.4411,1006,3.2452
8.4454,1005,3.2419
8.4497,422,1.3613
8.4540,0,0.0000
8.4583,1004,3.2387
8.4626,1005,3.2419
8.4669,1006,3.2452
8.4712,0,0.0000
8.4755,0,0.0000
8.4799,1004,3.2387
8.4842,1006,3.2452
8.4885,968,3.1226
8.4927,0,0.0000
8.4971,1005,3.2419
8.5014,1004,3.2387
8.5057,1007,3.2484
8.5100,392,1.2645
8.5143,0,0.0000
8.5186,1007,3.2484
8.5230,1006,3.2452
8.5273,1005,3.2419
8.5316,0,0.0000
8.5359,157,0.5065
8.5402,1005,3.2419
8.5445,1005,3.2419
8.5488,885,2.8548
8.5531,0,0.0000
8.5574,968,3.1226
8.5617,1006,3.2452
8.5660,1006,3.2452
8.5703,0,0.0000
8.5746,0,0.0000
8.5789,1006,3.2452
8.5832,1004,3.2387
8.5875,1006,3.2452
8.5918,0,0.0000
8.5961,529,1.7065
8.6004,1006,3.2452
8.6047,1005,3.2419
8.6090,821,2.6484
8.6134,0,0.0000
8.6177,1006,3.2452
8.6220,1006,3.2452
8.6263,1006,3.2452
8.6306,0,0.0000
8.6349,0,0.0000
8.6392,1006,3.2452
8.6435,1006,3.2452
8.6478,1005,3.2419
8.6521,0,0.0000
8.6564,670,2.1613
8.6607,1005,3.2419
8.6650,1005,3.2419
8.6693,617,1.9903
8.6736,0,0.0000
8.6779,1005,3.2419
8.6822,1007,3.2484
8.6865,1004,3.2387
8.6908,0,0.0000
8.6951,0,0.0000
8.6994,1006,3.2452
8.7037,1004,3.2387
8.7080,1001,3.2290
8.7123,0,0.0000
8.7166,629,2.0290
8.7209,1006,3.2452
8.7253,1005,3.2419
8.7296,337,1.0871
8.7339,0,0.0000
8.7382,1005,3.2419
8.7425,1005,3.2419
8.7468,1006,3.2452
8.7511,0,0.0000
8.7554,175,0.5645
8.7597,1005,3.2419
8.7640,1006,3.2452
8.7683,991,3.1968
8.7726,0,0.0000
8.7769,1005,3.2419
8.7812,1002,3.2323
8.7855,1005,3.2419
8.7898,341,1.1000
8.7941,0,0.0000
8.7984,1006,3.2452
8.8027,1006,3.2452
8.8071,1006,3.2452
8.8113,0,0.0000
8.8156,318,1.0258
8.8199,1006,3.2452
8.8242,1006,3.2452
8.8286,883,2.8484
8.8329,0,0.0000
8.8372,1004,3.2387
8.8415,1006,3.2452
8.8458,1005,3.2419
8.8501,41,0.1323
8.8544,204,0.6581
8.8587,1007,3.2484
8.8630,1005,3.2419
8.8673,1004,3.2387
8.8716,0,0.0000
8.8759,1004,3.2387
8.8802,1006,3.2452
8.8845,1006,3.2452
8.8889,916,2.9548
8.8932,0,0.0000
8.8975,1005,3.2419
8.9017,1007,3.2484
8.9061,1007,3.2484
8.9104,10,0.0323
8.9147,73,0.2355
8.9190,1006,3.2452
8.9233,1005,3.2419
8.9276,1004,3.2387
8.9320,0,0.0000
8.9363,973,3.1387
8.9405,1007,3.2484
8.9448,1006,3.2452
8.9491,549,1.7710
8.9535,0,0.0000
8.9578,1004,3.2387
8.9621,1006,3.2452
8.9664,1006,3.2452
8.9707,0,0.0000
8.9750,132,0.4258
8.9793,1005,3.2419
8.9836,1004,3.2387
8.9879,1003,3.2355
8.9922,0,0.0000
8.9965,1001,3.2290
9.0008,1005,3.2419
9.0051,1007,3.2484
9.0094,352,1.1355
9.0137,0,0.0000
9.0180,1005,3.2419
9.0223,1007,3.2484
9.0266,1006,3.2452
9.0310,0,0.0000
9.0353,169,0.5452
9.0396,1004,3.2387
9.0439,1004,3.2387
9.0482,908,2.9290
9.0525,0,0.0000
9.0568,1005,3.2419
9.0611,1006,3.2452
9.0654,1004,3.2387
9.0697,107,0.3452
9.0740,0,0.0000
9.0783,1006,3.2452
9.0826,1007,3.2484
9.0869,1004,3.2387
9.0912,0,0.0000
9.0955,207,0.6677
9.0998,1006,3.2452
9.1041,1005,3.2419
9.1084,722,2.3290
9.1127,0,0.0000
9.1170,977,3.1516
9.1213,1000,3.2258
9.1256,1005,3.2419
9.1300,0,0.0000
9.1343,0,0.0000
9.1386,1006,3.2452
9.1429,1006,3.2452
9.1472,1003,3.2355
9.1515,0,0.0000
9.1558,333,1.0742
9.1601,1006,3.2452
9.1644,1007,3.2484
9.1687,525,1.6935
9.1730,0,0.0000
9.1773,1004,3.2387
9.1816,1005,3.2419
9.1859,1006,3.2452
9.1902,0,0.0000
9.1945,0,0.0000
9.1988,1006,3.2452
9.2031,1004,3.2387
9.2074,1003,3.2355
9.2117,0,0.0000
9.2160,522,1.6839
9.2203,1006,3.2452
9.2247,1006,3.2452
9.2290,276,0.8903
9.2333,0,0.0000
9.2377,1006,3.2452
9.2420,1004,3.2387
9.2463,1006,3.2452
9.2506,0,0.0000
9.2549,0,0.0000
9.2592,1006,3.2452
9.2635,1007,3.2484
9.2678,908,2.9290
9.2721,0,0.0000
9.2764,839,2.7065
9.2807,1005,3.2419
9.2850,1007,3.2484
9.2893,47,0.1516
9.2940,0,0.0000
9.2984,1006,3.2452
9.3027,1005,3.2419
9.3070,1004,3.2387
9.3113,0,0.0000
9.3156,269,0.8677
9.3199,1004,3.2387
9.3242,1006,3.2452
9.3285,508,1.6387
9.3328,0,0.0000
9.3371,1006,3.2452
9.3414,1006,3.2452
9.3457,1006,3.2452
9.3500,0,0.0000
9.3543,169,0.5452
9.3586,1005,3.2419
9.3630,1004,3.2387
9.3672,1004,3.2387
9.3715,0,0.0000
9.3758,1002,3.2323
9.3801,1005,3.2419
9.3844,1006,3.2452
9.3887,595,1.9194
9.3931,0,0.0000
9.3973,1006,3.2452
9.4017,1007,3.2484
9.4060,1004,3.2387
9.4103,0,0.0000
9.4146,287,0.9258
9.4189,1005,3.2419
9.4232,1004,3.2387
9.4275,1000,3.2258
9.4318,0,0.0000
9.4361,1007,3.2484
9.4404,1004,3.2387
9.4447,1006,3.2452
9.4490,460,1.4839
9.4534,0,0.0000
9.4577,1006,3.2452
9.4621,1006,3.2452
9.4663,1005,3.2419
9.4706,0,0.0000
9.4750,983,3.1710
9.4793,1005,3.2419
9.4836,1004,3.2387
9.4879,1000,3.2258
9.4922,0,0.0000
9.4965,1005,3.2419
9.5008,1004,3.2387
9.5051,1004,3.2387
9.5094,241,0.7774
9.5137,46,0.1484
9.5180,1006,3.2452
9.5223,1004,3.2387
9.5266,1005,3.2419
9.5309,0,0.0000
9.5352,860,2.7742
9.5395,1005,3.2419
9.5438,1006,3.2452
9.5481,858,2.7677
9.5524,0,0.0000
9.5567,1006,3.2452
9.5610,1004,3.2387
9.5653,1006,3.2452
9.5696,0,0.0000
9.5740,0,0.0000
9.5782,1006,3.2452
9.5825,1005,3.2419
9.5869,1004,3.2387
9.5912,0,0.0000
9.5955,1001,3.2290
9.5998,1006,3.2452
9.6041,1005,3.2419
9.6084,652,2.1032
9.6127,0,0.0000
9.6170,1006,3.2452
9.6213,1005,3.2419
9.6256,1006,3.2452
9.6299,0,0.0000
9.6342,422,1.3613
9.6385,1006,3.2452
9.6428,1005,3.2419
9.6471,1005,3.2419
9.6514,0,0.0000
9.6557,1006,3.2452
9.6600,1004,3.2387
9.6643,1006,3.2452
9.6686,506,1.6323
9.6729,0,0.0000
9.6772,1004,3.2387
9.6815,1006,3.2452
9.6858,1004,3.2387
9.6901,0,0.0000
9.6944,171,0.5516
9.6987,1007,3.2484
9.7030,1006,3.2452
9.7073,988,3.1871
9.7116,0,0.0000
9.7159,1006,3.2452
9.7202,1007,3.2484
9.7245,1005,3.2419
9.7289,377,1.2161
9.7332,0,0.0000
9.7375,1006,3.2452
9.7418,1004,3.2387
9.7461,1004,3.2387
9.7504,0,0.0000
9.7547,224,0.7226
9.7590,1005,3.2419
9.7634,1006,3.2452
9.7677,774,2.4968
9.7720,0,0.0000
9.7763,978,3.1548
9.7806,1005,3.2419
9.7849,1006,3.2452
9.7892,0,0.0000
9.7935,0,0.0000
9.7978,1007,3.2484
9.8021,1006,3.2452
9.8064,1005,3.2419
9.8107,0,0.0000
9.8150,615,1.9839
9.8193,1006,3.2452
9.8236,1006,3.2452
9.8279,705,2.2742
9.8322,0,0.0000
9.8365,1005,3.2419
9.8409,1005,3.2419
9.8452,1007,3.2484
9.8495,0,0.0000
9.8538,28,0.0903
9.8581,1006,3.2452
9.8624,1006,3.2452
9.8667,1004,3.2387
9.8710,0,0.0000
9.8753,1002,3.2323
9.8796,1003,3.2355
9.8839,1005,3.2419
9.8882,587,1.8935
9.8925,0,0.0000
9.8968,1006,3.2452
9.9012,1004,3.2387
9.9054,1005,3.2419
9.9097,0,0.0000
9.9141,257,0.8290
9.9184,1004,3.2387
9.9227,1007,3.2484
9.9270,1002,3.2323
9.9313,0,0.0000
9.9356,1005,3.2419
9.9400,1006,3.2452
9.9443,1004,3.2387
9.9485,270,0.8710
9.9528,0,0.0000
9.9572,1005,3.2419
9.9615,1002,3.2323
9.9657,1004,3.2387
9.9701,0,0.0000
9.9744,128,0.4129
9.9787,1006,3.2452
9.9830,1005,3.2419
9.9873,832,2.6839
9.9916,0,0.0000
9.9959,773,2.4935
