time_s,adc_raw,voltage
0.0000,0,0.0000
0.0045,0,0.0000
0.0088,0,0.0000
0.0132,0,0.0000
0.0175,0,0.0000
0.0219,0,0.0000
0.0263,0,0.0000
0.0307,0,0.0000
0.0350,0,0.0000
0.0394,0,0.0000
0.0438,0,0.0000
0.0482,0,0.0000
0.0527,0,0.0000
0.0571,0,0.0000
0.0617,0,0.0000
0.0663,0,0.0000
0.0705,0,0.0000
0.0747,0,0.0000
0.0789,0,0.0000
0.0831,0,0.0000
0.0873,0,0.0000
0.0915,0,0.0000
0.0956,0,0.0000
0.0998,0,0.0000
0.1040,0,0.0000
0.1082,0,0.0000
0.1123,0,0.0000
0.1165,0,0.0000
0.1207,0,0.0000
0.1249,0,0.0000
0.1290,0,0.0000
0.1332,0,0.0000
0.1374,0,0.0000
0.1416,0,0.0000
0.1458,0,0.0000
0.1500,0,0.0000
0.1542,0,0.0000
0.1584,0,0.0000
0.1625,0,0.0000
0.1667,0,0.0000
0.1709,0,0.0000
0.1751,0,0.0000
0.1792,0,0.0000
0.1835,0,0.0000
0.1877,0,0.0000
0.1919,0,0.0000
0.1960,0,0.0000
0.2002,0,0.0000
0.2044,0,0.0000
0.2085,0,0.0000
0.2127,0,0.0000
0.2169,0,0.0000
0.2211,0,0.0000
0.2252,0,0.0000
0.2294,0,0.0000
0.2337,0,0.0000
0.2379,0,0.0000
0.2421,0,0.0000
0.2462,0,0.0000
0.2504,0,0.0000
0.2546,0,0.0000
0.2587,0,0.0000
0.2629,0,0.0000
0.2671,0,0.0000
0.2715,0,0.0000
0.2757,0,0.0000
0.2799,0,0.0000
0.2841,0,0.0000
0.2882,0,0.0000
0.2924,0,0.0000
0.2966,0,0.0000
0.3008,0,0.0000
0.3049,0,0.0000
0.3091,0,0.0000
0.3133,0,0.0000
0.3175,0,0.0000
0.3216,0,0.0000
0.3258,0,0.0000
0.3299,0,0.0000
0.3341,0,0.0000
0.3383,0,0.0000
0.3425,0,0.0000
0.3467,0,0.0000
0.3508,0,0.0000
0.3550,0,0.0000
0.3592,0,0.0000
0.3634,0,0.0000
0.3675,0,0.0000
0.3717,0,0.0000
0.3759,0,0.0000
0.3801,0,0.0000
0.3843,0,0.0000
0.3885,0,0.0000
0.3927,0,0.0000
0.3969,0,0.0000
0.4011,0,0.0000
0.4052,0,0.0000
0.4094,0,0.0000
0.4136,0,0.0000
0.4177,0,0.0000
0.4219,0,0.0000
0.4261,0,0.0000
0.4302,0,0.0000
0.4345,0,0.0000
0.4387,0,0.0000
0.4429,0,0.0000
0.4470,0,0.0000
0.4512,0,0.0000
0.4554,0,0.0000
0.4596,0,0.0000
0.4637,0,0.0000
0.4679,0,0.0000
0.4721,0,0.0000
0.4763,0,0.0000
0.4804,0,0.0000
0.4848,0,0.0000
0.4889,0,0.0000
0.4931,0,0.0000
0.4973,0,0.0000
0.5015,0,0.0000
0.5056,0,0.0000
0.5098,0,0.0000
0.5139,0,0.0000
0.5181,0,0.0000
0.5223,0,0.0000
0.5265,0,0.0000
0.5307,0,0.0000
0.5349,0,0.0000
0.5391,0,0.0000
0.5433,0,0.0000
0.5474,0,0.0000
0.5516,0,0.0000
0.5558,0,0.0000
0.5600,0,0.0000
0.5642,0,0.0000
0.5683,0,0.0000
0.5725,0,0.0000
0.5767,0,0.0000
0.5809,0,0.0000
0.5851,0,0.0000
0.5893,0,0.0000
0.5934,0,0.0000
0.5976,0,0.0000
0.6018,0,0.0000
0.6060,0,0.0000
0.6101,0,0.0000
0.6143,0,0.0000
0.6185,0,0.0000
0.6227,0,0.0000
0.6269,0,0.0000
0.6310,0,0.0000
0.6352,0,0.0000
0.6394,0,0.0000
0.6436,0,0.0000
0.6478,0,0.0000
0.6520,0,0.0000
0.6561,0,0.0000
0.6603,0,0.0000
0.6645,0,0.0000
0.6687,0,0.0000
0.6728,0,0.0000
0.6770,0,0.0000
0.6812,0,0.0000
0.6854,0,0.0000
0.6896,0,0.0000
0.6937,0,0.0000
0.6979,0,0.0000
0.7021,0,0.0000
0.7063,0,0.0000
0.7104,0,0.0000
0.7146,0,0.0000
0.7188,0,0.0000
0.7230,0,0.0000
0.7272,0,0.0000
0.7313,0,0.0000
0.7355,0,0.0000
0.7397,0,0.0000
0.7439,0,0.0000
0.7481,0,0.0000
0.7522,0,0.0000
0.7564,0,0.0000
0.7606,0,0.0000
0.7648,0,0.0000
0.7690,0,0.0000
0.7731,0,0.0000
0.7773,0,0.0000
0.7815,0,0.0000
0.7857,0,0.0000
0.7899,0,0.0000
0.7940,0,0.0000
0.7982,0,0.0000
0.8024,0,0.0000
0.8066,0,0.0000
0.8108,0,0.0000
0.8149,0,0.0000
0.8191,0,0.0000
0.8233,0,0.0000
0.8275,0,0.0000
0.8317,0,0.0000
0.8359,0,0.0000
0.8401,0,0.0000
0.8443,0,0.0000
0.8484,0,0.0000
0.8526,0,0.0000
0.8568,0,0.0000
0.8610,0,0.0000
0.8652,0,0.0000
0.8693,0,0.0000
0.8735,0,0.0000
0.8777,0,0.0000
0.8819,0,0.0000
0.8861,0,0.0000
0.8903,0,0.0000
0.8944,0,0.0000
0.8986,0,0.0000
0.9028,0,0.0000
0.9070,0,0.0000
0.9112,0,0.0000
0.9154,0,0.0000
0.9195,0,0.0000
0.9237,0,0.0000
0.9279,0,0.0000
0.9321,0,0.0000
0.9362,0,0.0000
0.9405,0,0.0000
0.9446,0,0.0000
0.9488,0,0.0000
0.9530,0,0.0000
0.9572,0,0.0000
0.9614,0,0.0000
0.9655,0,0.0000
0.9697,0,0.0000
0.9739,0,0.0000
0.9781,0,0.0000
0.9822,0,0.0000
0.9864,0,0.0000
0.9906,0,0.0000
0.9948,0,0.0000
0.9990,0,0.0000
1.0033,0,0.0000
1.0075,0,0.0000
1.0118,0,0.0000
1.0161,0,0.0000
1.0204,0,0.0000
1.0248,0,0.0000
1.0291,0,0.0000
1.0334,0,0.0000
1.0377,0,0.0000
1.0421,0,0.0000
1.0464,0,0.0000
1.0508,0,0.0000
1.0551,0,0.0000
1.0594,0,0.0000
1.0637,0,0.0000
1.0681,0,0.0000
1.0724,0,0.0000
1.0767,0,0.0000
1.0810,0,0.0000
1.0854,0,0.0000
1.0897,0,0.0000
1.0940,0,0.0000
1.0984,0,0.0000
1.1028,0,0.0000
1.1072,0,0.0000
1.1116,0,0.0000
1.1159,0,0.0000
1.1201,0,0.0000
1.1245,0,0.0000
1.1288,0,0.0000
1.1330,0,0.0000
1.1373,0,0.0000
1.1417,0,0.0000
1.1460,0,0.0000
1.1503,0,0.0000
1.1546,0,0.0000
1.1588,0,0.0000
1.1631,0,0.0000
1.1674,0,0.0000
1.1717,0,0.0000
1.1760,0,0.0000
1.1803,0,0.0000
1.1846,0,0.0000
1.1889,0,0.0000
1.1932,0,0.0000
1.1975,0,0.0000
1.2018,0,0.0000
1.2061,0,0.0000
1.2104,0,0.0000
1.2147,0,0.0000
1.2190,0,0.0000
1.2233,0,0.0000
1.2276,0,0.0000
1.2319,0,0.0000
1.2362,0,0.0000
1.2405,0,0.0000
1.2448,0,0.0000
1.2491,0,0.0000
1.2534,0,0.0000
1.2577,0,0.0000
1.2619,0,0.0000
1.2663,0,0.0000
1.2706,0,0.0000
1.2748,0,0.0000
1.2791,0,0.0000
1.2834,0,0.0000
1.2877,0,0.0000
1.2920,0,0.0000
1.2963,0,0.0000
1.3006,0,0.0000
1.3049,0,0.0000
1.3092,0,0.0000
1.3135,0,0.0000
1.3178,0,0.0000
1.3221,0,0.0000
1.3264,0,0.0000
1.3307,0,0.0000
1.3350,0,0.0000
1.3393,0,0.0000
1.3436,0,0.0000
1.3479,0,0.0000
1.3522,0,0.0000
1.3565,0,0.0000
1.3607,0,0.0000
1.3650,0,0.0000
1.3693,0,0.0000
1.3736,0,0.0000
1.3779,0,0.0000
1.3822,0,0.0000
1.3865,0,0.0000
1.3908,0,0.0000
1.3951,0,0.0000
1.3994,0,0.0000
1.4037,0,0.0000
1.4080,0,0.0000
1.4123,0,0.0000
1.4166,0,0.0000
1.4209,0,0.0000
1.4252,0,0.0000
1.4295,0,0.0000
1.4338,0,0.0000
1.4380,0,0.0000
1.4423,0,0.0000
1.4466,0,0.0000
1.4510,0,0.0000
1.4552,0,0.0000
1.4595,0,0.0000
1.4638,0,0.0000
1.4681,0,0.0000
1.4724,0,0.0000
1.4767,0,0.0000
1.4810,0,0.0000
1.4853,0,0.0000
1.4896,0,0.0000
1.4939,0,0.0000
1.4982,0,0.0000
1.5025,0,0.0000
1.5068,0,0.0000
1.5111,0,0.0000
1.5154,0,0.0000
1.5198,0,0.0000
1.5241,0,0.0000
1.5284,0,0.0000
1.5328,0,0.0000
1.5371,614,1.9806
1.5414,0,0.0000
1.5458,0,0.0000
1.5501,0,0.0000
1.5544,0,0.0000
1.5588,902,2.9097
1.5631,0,0.0000
1.5674,0,0.0000
1.5718,0,0.0000
1.5762,169,0.5452
1.5805,215,0.6935
1.5848,0,0.0000
1.5891,0,0.0000
1.5935,0,0.0000
1.5978,1003,3.2355
1.6021,0,0.0000
1.6065,0,0.0000
1.6108,0,0.0000
1.6151,0,0.0000
1.6195,1004,3.2387
1.6238,0,0.0000
1.6281,0,0.0000
1.6324,0,0.0000
1.6367,1003,3.2355
1.6410,539,1.7387
1.6453,0,0.0000
1.6496,0,0.0000
1.6539,0,0.0000
1.6582,1006,3.2452
1.6624,0,0.0000
1.6667,0,0.0000
1.6709,0,0.0000
1.6752,286,0.9226
1.6795,562,1.8129
1.6837,0,0.0000
1.6880,0,0.0000
1.6923,0,0.0000
1.6966,90,0.2903
1.7009,0,0.0000
1.7051,0,0.0000
1.7094,0,0.0000
1.7136,0,0.0000
1.7179,0,0.0000
1.7223,0,0.0000
1.7265,0,0.0000
1.7310,0,0.0000
1.7353,0,0.0000
1.7396,0,0.0000
1.7438,0,0.0000
1.7481,0,0.0000
1.7524,0,0.0000
1.7567,0,0.0000
1.7609,0,0.0000
1.7652,0,0.0000
1.7695,0,0.0000
1.7737,0,0.0000
1.7780,0,0.0000
1.7823,0,0.0000
1.7865,0,0.0000
1.7908,0,0.0000
1.7951,0,0.0000
1.7994,0,0.0000
1.8037,0,0.0000
1.8079,0,0.0000
1.8122,0,0.0000
1.8169,0,0.0000
1.8212,0,0.0000
1.8255,0,0.0000
1.8297,0,0.0000
1.8340,0,0.0000
1.8383,0,0.0000
1.8426,0,0.0000
1.8469,0,0.0000
1.8512,0,0.0000
1.8555,0,0.0000
1.8598,0,0.0000
1.8640,0,0.0000
1.8683,0,0.0000
1.8725,0,0.0000
1.8768,0,0.0000
1.8811,0,0.0000
1.8853,0,0.0000
1.8896,0,0.0000
1.8938,0,0.0000
1.8986,0,0.0000
1.9029,0,0.0000
1.9071,0,0.0000
1.9114,0,0.0000
1.9156,0,0.0000
1.9199,0,0.0000
1.9242,0,0.0000
1.9285,0,0.0000
1.9328,0,0.0000
1.9370,0,0.0000
1.9414,0,0.0000
1.9456,0,0.0000
1.9499,0,0.0000
1.9542,0,0.0000
1.9585,0,0.0000
1.9628,0,0.0000
1.9671,0,0.0000
1.9713,0,0.0000
1.9756,0,0.0000
1.9799,0,0.0000
1.9842,0,0.0000
1.9886,0,0.0000
1.9928,0,0.0000
1.9972,0,0.0000
2.0015,0,0.0000
2.0058,0,0.0000
2.0101,0,0.0000
2.0144,0,0.0000
2.0187,0,0.0000
2.0230,0,0.0000
2.0273,0,0.0000
2.0316,0,0.0000
2.0363,0,0.0000
2.0408,0,0.0000
2.0453,0,0.0000
2.0498,0,0.0000
2.0543,0,0.0000
2.0588,0,0.0000
2.0633,0,0.0000
2.0677,0,0.0000
2.0720,0,0.0000
2.0762,0,0.0000
2.0805,0,0.0000
2.0848,0,0.0000
2.0891,0,0.0000
2.0934,0,0.0000
2.0977,0,0.0000
2.1020,0,0.0000
2.1063,0,0.0000
2.1106,0,0.0000
2.1149,0,0.0000
2.1191,0,0.0000
2.1234,0,0.0000
2.1277,0,0.0000
2.1321,0,0.0000
2.1364,0,0.0000
2.1407,0,0.0000
2.1449,0,0.0000
2.1492,0,0.0000
2.1535,0,0.0000
2.1577,0,0.0000
2.1620,0,0.0000
2.1663,0,0.0000
2.1705,0,0.0000
2.1748,0,0.0000
2.1790,0,0.0000
2.1833,0,0.0000
2.1876,0,0.0000
2.1918,0,0.0000
2.1961,0,0.0000
2.2004,0,0.0000
2.2046,0,0.0000
2.2089,0,0.0000
2.2132,0,0.0000
2.2174,0,0.0000
2.2217,0,0.0000
2.2259,0,0.0000
2.2302,0,0.0000
2.2345,0,0.0000
2.2388,0,0.0000
2.2431,0,0.0000
2.2475,0,0.0000
2.2518,0,0.0000
2.2561,0,0.0000
2.2605,0,0.0000
2.2648,0,0.0000
2.2691,0,0.0000
2.2735,0,0.0000
2.2778,0,0.0000
2.2821,0,0.0000
2.2864,0,0.0000
2.2907,0,0.0000
2.2951,0,0.0000
2.2994,0,0.0000
2.3037,0,0.0000
2.3081,0,0.0000
2.3124,0,0.0000
2.3167,0,0.0000
2.3210,0,0.0000
2.3254,0,0.0000
2.3297,0,0.0000
2.3340,0,0.0000
2.3384,0,0.0000
2.3428,0,0.0000
2.3471,0,0.0000
2.3514,0,0.0000
2.3557,0,0.0000
2.3600,0,0.0000
2.3643,0,0.0000
2.3686,0,0.0000
2.3729,0,0.0000
2.3772,0,0.0000
2.3815,0,0.0000
2.3858,0,0.0000
2.3900,0,0.0000
2.3943,0,0.0000
2.3986,0,0.0000
2.4029,0,0.0000
2.4072,0,0.0000
2.4115,0,0.0000
2.4158,0,0.0000
2.4201,0,0.0000
2.4244,0,0.0000
2.4287,0,0.0000
2.4330,0,0.0000
2.4372,0,0.0000
2.4416,0,0.0000
2.4459,0,0.0000
2.4503,0,0.0000
2.4546,0,0.0000
2.4589,0,0.0000
2.4633,0,0.0000
2.4676,0,0.0000
2.4719,0,0.0000
2.4763,0,0.0000
2.4807,0,0.0000
2.4850,0,0.0000
2.4893,0,0.0000
2.4937,0,0.0000
2.4980,0,0.0000
2.5023,0,0.0000
2.5066,0,0.0000
2.5110,0,0.0000
2.5153,0,0.0000
2.5196,0,0.0000
2.5239,0,0.0000
2.5283,0,0.0000
2.5326,0,0.0000
2.5370,0,0.0000
2.5413,0,0.0000
2.5456,0,0.0000
2.5499,0,0.0000
2.5542,0,0.0000
2.5585,0,0.0000
2.5628,0,0.0000
2.5671,0,0.0000
2.5714,0,0.0000
2.5757,0,0.0000
2.5800,0,0.0000
2.5842,0,0.0000
2.5885,0,0.0000
2.5928,0,0.0000
2.5971,0,0.0000
2.6014,0,0.0000
2.6057,0,0.0000
2.6100,0,0.0000
2.6143,0,0.0000
2.6186,0,0.0000
2.6229,0,0.0000
2.6272,0,0.0000
2.6314,0,0.0000
2.6357,0,0.0000
2.6400,0,0.0000
2.6444,0,0.0000
2.6487,0,0.0000
2.6531,0,0.0000
2.6574,0,0.0000
2.6617,0,0.0000
2.6661,0,0.0000
2.6704,0,0.0000
2.6747,0,0.0000
2.6791,0,0.0000
2.6834,0,0.0000
2.6877,0,0.0000
2.6920,0,0.0000
2.6964,0,0.0000
2.7007,0,0.0000
2.7050,0,0.0000
2.7093,0,0.0000
2.7137,0,0.0000
2.7180,0,0.0000
2.7223,0,0.0000
2.7266,0,0.0000
2.7310,0,0.0000
2.7353,0,0.0000
2.7396,0,0.0000
2.7439,0,0.0000
2.7484,0,0.0000
2.7527,0,0.0000
2.7570,0,0.0000
2.7613,0,0.0000
2.7655,0,0.0000
2.7697,0,0.0000
2.7740,0,0.0000
2.7782,0,0.0000
2.7825,0,0.0000
2.7867,0,0.0000
2.7909,0,0.0000
2.7952,0,0.0000
2.7994,0,0.0000
2.8037,0,0.0000
2.8079,0,0.0000
2.8122,0,0.0000
2.8164,0,0.0000
2.8206,0,0.0000
2.8249,0,0.0000
2.8291,0,0.0000
2.8334,0,0.0000
2.8376,0,0.0000
2.8418,0,0.0000
2.8461,0,0.0000
2.8503,0,0.0000
2.8546,0,0.0000
2.8589,0,0.0000
2.8632,0,0.0000
2.8674,0,0.0000
2.8717,0,0.0000
2.8760,0,0.0000
2.8802,0,0.0000
2.8845,0,0.0000
2.8888,0,0.0000
2.8930,0,0.0000
2.8973,0,0.0000
2.9016,0,0.0000
2.9059,0,0.0000
2.9101,0,0.0000
2.9144,0,0.0000
2.9187,0,0.0000
2.9230,0,0.0000
2.9272,0,0.0000
2.9315,0,0.0000
2.9357,0,0.0000
2.9400,0,0.0000
2.9443,0,0.0000
2.9486,0,0.0000
2.9528,0,0.0000
2.9571,0,0.0000
2.9614,0,0.0000
2.9657,0,0.0000
2.9699,0,0.0000
2.9742,0,0.0000
2.9786,0,0.0000
2.9829,0,0.0000
2.9871,0,0.0000
2.9914,0,0.0000
2.9957,0,0.0000
2.9999,0,0.0000
3.0042,0,0.0000
3.0085,0,0.0000
3.0127,0,0.0000
3.0170,0,0.0000
3.0213,0,0.0000
3.0256,0,0.0000
3.0299,0,0.0000
3.0341,0,0.0000
3.0384,0,0.0000
3.0427,0,0.0000
3.0470,0,0.0000
3.0512,0,0.0000
3.0555,0,0.0000
3.0599,0,0.0000
3.0642,0,0.0000
3.0684,0,0.0000
3.0728,0,0.0000
3.0770,0,0.0000
3.0813,0,0.0000
3.0856,0,0.0000
3.0899,0,0.0000
3.0942,0,0.0000
3.0985,0,0.0000
3.1028,0,0.0000
3.1070,0,0.0000
3.1113,0,0.0000
3.1156,0,0.0000
3.1199,0,0.0000
3.1242,0,0.0000
3.1285,0,0.0000
3.1328,0,0.0000
3.1371,0,0.0000
3.1414,0,0.0000
3.1456,0,0.0000
3.1499,0,0.0000
3.1542,0,0.0000
3.1585,0,0.0000
3.1628,0,0.0000
3.1671,0,0.0000
3.1714,0,0.0000
3.1756,0,0.0000
3.1799,0,0.0000
3.1842,0,0.0000
3.1885,0,0.0000
3.1928,0,0.0000
3.1971,0,0.0000
3.2014,0,0.0000
3.2057,0,0.0000
3.2100,0,0.0000
3.2143,0,0.0000
3.2185,0,0.0000
3.2228,0,0.0000
3.2271,0,0.0000
3.2314,0,0.0000
3.2357,0,0.0000
3.2400,0,0.0000
3.2443,0,0.0000
3.2486,0,0.0000
3.2528,0,0.0000
3.2571,0,0.0000
3.2614,0,0.0000
3.2657,0,0.0000
3.2700,0,0.0000
3.2743,0,0.0000
3.2786,0,0.0000
3.2829,0,0.0000
3.2871,0,0.0000
3.2914,0,0.0000
3.2957,0,0.0000
3.3000,0,0.0000
3.3043,0,0.0000
3.3086,0,0.0000
3.3129,0,0.0000
3.3171,0,0.0000
3.3214,0,0.0000
3.3257,0,0.0000
3.3300,0,0.0000
3.3343,0,0.0000
3.3386,0,0.0000
3.3428,0,0.0000
3.3471,0,0.0000
3.3514,0,0.0000
3.3557,0,0.0000
3.3600,0,0.0000
3.3643,0,0.0000
3.3686,0,0.0000
3.3729,0,0.0000
3.3772,0,0.0000
3.3814,0,0.0000
3.3857,0,0.0000
3.3900,0,0.0000
3.3943,0,0.0000
3.3986,0,0.0000
3.4029,0,0.0000
3.4072,0,0.0000
3.4115,0,0.0000
3.4158,0,0.0000
3.4201,0,0.0000
3.4244,0,0.0000
3.4287,0,0.0000
3.4330,0,0.0000
3.4373,0,0.0000
3.4415,0,0.0000
3.4458,0,0.0000
3.4501,0,0.0000
3.4544,0,0.0000
3.4587,0,0.0000
3.4630,0,0.0000
3.4673,0,0.0000
3.4715,0,0.0000
3.4758,0,0.0000
3.4801,0,0.0000
3.4844,0,0.0000
3.4887,0,0.0000
3.4930,0,0.0000
3.4973,0,0.0000
3.5016,0,0.0000
3.5058,0,0.0000
3.5101,0,0.0000
3.5144,0,0.0000
3.5187,0,0.0000
3.5230,0,0.0000
3.5273,0,0.0000
3.5316,0,0.0000
3.5358,0,0.0000
3.5401,0,0.0000
3.5444,0,0.0000
3.5487,0,0.0000
3.5530,0,0.0000
3.5573,0,0.0000
3.5616,0,0.0000
3.5659,0,0.0000
3.5702,0,0.0000
3.5744,0,0.0000
3.5787,0,0.0000
3.5830,0,0.0000
3.5873,0,0.0000
3.5916,0,0.0000
3.5959,0,0.0000
3.6002,0,0.0000
3.6044,0,0.0000
3.6087,0,0.0000
3.6130,0,0.0000
3.6173,0,0.0000
3.6216,0,0.0000
3.6258,0,0.0000
3.6301,0,0.0000
3.6345,0,0.0000
3.6387,0,0.0000
3.6430,0,0.0000
3.6473,0,0.0000
3.6516,0,0.0000
3.6559,0,0.0000
3.6602,0,0.0000
3.6644,0,0.0000
3.6687,0,0.0000
3.6730,0,0.0000
3.6773,0,0.0000
3.6816,0,0.0000
3.6859,0,0.0000
3.6902,0,0.0000
3.6944,0,0.0000
3.6987,0,0.0000
3.7030,0,0.0000
3.7073,0,0.0000
3.7116,0,0.0000
3.7159,0,0.0000
3.7202,0,0.0000
3.7244,0,0.0000
3.7287,0,0.0000
3.7330,0,0.0000
3.7373,0,0.0000
3.7416,0,0.0000
3.7458,0,0.0000
3.7501,0,0.0000
3.7544,0,0.0000
3.7587,0,0.0000
3.7630,0,0.0000
3.7673,0,0.0000
3.7716,0,0.0000
3.7759,0,0.0000
3.7802,0,0.0000
3.7844,0,0.0000
3.7887,0,0.0000
3.7930,0,0.0000
3.7973,0,0.0000
3.8016,0,0.0000
3.8058,0,0.0000
3.8101,0,0.0000
3.8144,0,0.0000
3.8186,0,0.0000
3.8229,0,0.0000
3.8272,0,0.0000
3.8315,0,0.0000
3.8358,0,0.0000
3.8401,0,0.0000
3.8444,0,0.0000
3.8487,0,0.0000
3.8529,0,0.0000
3.8572,0,0.0000
3.8616,0,0.0000
3.8659,0,0.0000
3.8701,0,0.0000
3.8744,0,0.0000
3.8787,0,0.0000
3.8830,0,0.0000
3.8873,0,0.0000
3.8916,0,0.0000
3.8958,0,0.0000
3.9001,0,0.0000
3.9044,0,0.0000
3.9087,0,0.0000
3.9130,0,0.0000
3.9172,0,0.0000
3.9215,0,0.0000
3.9258,0,0.0000
3.9301,0,0.0000
3.9344,364,1.1742
3.9387,0,0.0000
3.9430,0,0.0000
3.9473,0,0.0000
3.9516,0,0.0000
3.9558,221,0.7129
3.9601,0,0.0000
3.9644,0,0.0000
3.9687,0,0.0000
3.9730,0,0.0000
3.9773,0,0.0000
3.9816,0,0.0000
3.9859,0,0.0000
3.9901,0,0.0000
3.9944,454,1.4645
3.9988,0,0.0000
4.0030,0,0.0000
4.0073,0,0.0000
4.0116,0,0.0000
4.0159,384,1.2387
4.0202,0,0.0000
4.0245,0,0.0000
4.0288,0,0.0000
4.0331,0,0.0000
4.0374,0,0.0000
4.0416,0,0.0000
4.0459,0,0.0000
4.0502,0,0.0000
4.0544,425,1.3710
4.0587,0,0.0000
4.0630,0,0.0000
4.0673,0,0.0000
4.0716,0,0.0000
4.0759,248,0.8000
4.0801,0,0.0000
4.0844,0,0.0000
4.0887,0,0.0000
4.0930,0,0.0000
4.0972,0,0.0000
4.1015,0,0.0000
4.1064,0,0.0000
4.1109,0,0.0000
4.1154,307,0.9903
4.1199,0,0.0000
4.1244,0,0.0000
4.1290,0,0.0000
4.1335,92,0.2968
4.1380,0,0.0000
4.1423,0,0.0000
4.1466,0,0.0000
4.1510,0,0.0000
4.1553,478,1.5419
4.1596,0,0.0000
4.1640,0,0.0000
4.1683,0,0.0000
4.1725,0,0.0000
4.1768,41,0.1323
4.1810,0,0.0000
4.1853,0,0.0000
4.1896,0,0.0000
4.1938,305,0.9839
4.1981,0,0.0000
4.2024,0,0.0000
4.2066,0,0.0000
4.2109,0,0.0000
4.2152,381,1.2290
4.2195,0,0.0000
4.2238,0,0.0000
4.2281,0,0.0000
4.2324,0,0.0000
4.2366,0,0.0000
4.2409,0,0.0000
4.2451,0,0.0000
4.2494,0,0.0000
4.2537,0,0.0000
4.2579,0,0.0000
4.2622,0,0.0000
4.2665,0,0.0000
4.2708,0,0.0000
4.2751,0,0.0000
4.2794,0,0.0000
4.2837,0,0.0000
4.2880,0,0.0000
4.2923,0,0.0000
4.2966,0,0.0000
4.3009,0,0.0000
4.3052,0,0.0000
4.3095,0,0.0000
4.3138,0,0.0000
4.3181,0,0.0000
4.3223,0,0.0000
4.3266,0,0.0000
4.3309,0,0.0000
4.3352,0,0.0000
4.3395,0,0.0000
4.3438,0,0.0000
4.3481,0,0.0000
4.3524,0,0.0000
4.3567,0,0.0000
4.3610,0,0.0000
4.3653,0,0.0000
4.3697,0,0.0000
4.3740,0,0.0000
4.3783,0,0.0000
4.3827,0,0.0000
4.3870,0,0.0000
4.3914,0,0.0000
4.3957,0,0.0000
4.4000,0,0.0000
4.4043,0,0.0000
4.4087,0,0.0000
4.4130,0,0.0000
4.4174,0,0.0000
4.4217,0,0.0000
4.4260,0,0.0000
4.4304,0,0.0000
4.4347,0,0.0000
4.4391,0,0.0000
4.4434,0,0.0000
4.4477,0,0.0000
4.4520,0,0.0000
4.4564,0,0.0000
4.4607,0,0.0000
4.4650,0,0.0000
4.4693,0,0.0000
4.4737,0,0.0000
4.4779,0,0.0000
4.4822,0,0.0000
4.4865,0,0.0000
4.4908,0,0.0000
4.4951,0,0.0000
4.4994,0,0.0000
4.5037,0,0.0000
4.5080,0,0.0000
4.5124,0,0.0000
4.5167,0,0.0000
4.5210,0,0.0000
4.5252,0,0.0000
4.5295,0,0.0000
4.5339,0,0.0000
4.5381,0,0.0000
4.5424,0,0.0000
4.5467,0,0.0000
4.5510,0,0.0000
4.5553,0,0.0000
4.5596,0,0.0000
4.5639,0,0.0000
4.5682,0,0.0000
4.5725,0,0.0000
4.5768,0,0.0000
4.5811,0,0.0000
4.5854,0,0.0000
4.5896,0,0.0000
4.5940,0,0.0000
4.5983,0,0.0000
4.6026,0,0.0000
4.6069,0,0.0000
4.6112,0,0.0000
4.6155,0,0.0000
4.6198,0,0.0000
4.6241,0,0.0000
4.6284,0,0.0000
4.6327,0,0.0000
4.6371,0,0.0000
4.6413,0,0.0000
4.6456,0,0.0000
4.6499,0,0.0000
4.6542,0,0.0000
4.6585,0,0.0000
4.6629,0,0.0000
4.6672,0,0.0000
4.6715,0,0.0000
4.6758,0,0.0000
4.6801,0,0.0000
4.6844,0,0.0000
4.6887,0,0.0000
4.6930,0,0.0000
4.6973,0,0.0000
4.7016,0,0.0000
4.7058,0,0.0000
4.7101,0,0.0000
4.7144,0,0.0000
4.7187,0,0.0000
4.7230,0,0.0000
4.7273,0,0.0000
4.7316,0,0.0000
4.7359,0,0.0000
4.7402,0,0.0000
4.7445,0,0.0000
4.7488,0,0.0000
4.7531,0,0.0000
4.7574,0,0.0000
4.7617,0,0.0000
4.7660,0,0.0000
4.7703,0,0.0000
4.7745,0,0.0000
4.7789,0,0.0000
4.7831,0,0.0000
4.7874,0,0.0000
4.7917,0,0.0000
4.7960,0,0.0000
4.8003,0,0.0000
4.8046,0,0.0000
4.8089,0,0.0000
4.8132,0,0.0000
4.8175,0,0.0000
4.8218,0,0.0000
4.8261,0,0.0000
4.8304,0,0.0000
4.8346,0,0.0000
4.8390,0,0.0000
4.8433,0,0.0000
4.8475,0,0.0000
4.8518,0,0.0000
4.8561,0,0.0000
4.8604,0,0.0000
4.8647,0,0.0000
4.8690,0,0.0000
4.8734,0,0.0000
4.8778,0,0.0000
4.8822,0,0.0000
4.8865,0,0.0000
4.8908,0,0.0000
4.8952,0,0.0000
4.9004,0,0.0000
4.9048,0,0.0000
4.9091,0,0.0000
4.9134,0,0.0000
4.9177,0,0.0000
4.9221,0,0.0000
4.9265,0,0.0000
4.9308,0,0.0000
4.9351,0,0.0000
4.9394,0,0.0000
4.9438,0,0.0000
4.9481,0,0.0000
4.9525,0,0.0000
4.9568,0,0.0000
4.9611,0,0.0000
4.9656,0,0.0000
4.9699,0,0.0000
4.9745,0,0.0000
4.9789,0,0.0000
4.9832,0,0.0000
4.9875,0,0.0000
4.9918,0,0.0000
4.9960,0,0.0000
5.0003,0,0.0000
5.0047,0,0.0000
5.0090,0,0.0000
5.0132,0,0.0000
5.0175,0,0.0000
5.0219,0,0.0000
5.0262,0,0.0000
5.0305,0,0.0000
5.0348,0,0.0000
5.0390,0,0.0000
5.0433,0,0.0000
5.0477,0,0.0000
5.0520,0,0.0000
5.0562,0,0.0000
5.0606,0,0.0000
5.0649,0,0.0000
5.0692,0,0.0000
5.0735,0,0.0000
5.0778,0,0.0000
5.0821,0,0.0000
5.0865,0,0.0000
5.0907,0,0.0000
5.0950,0,0.0000
5.0993,0,0.0000
5.1036,0,0.0000
5.1079,0,0.0000
5.1122,0,0.0000
5.1165,0,0.0000
5.1208,0,0.0000
5.1252,0,0.0000
5.1295,0,0.0000
5.1338,0,0.0000
5.1381,0,0.0000
5.1427,0,0.0000
5.1470,0,0.0000
5.1513,0,0.0000
5.1556,0,0.0000
5.1599,0,0.0000
5.1642,0,0.0000
5.1688,0,0.0000
5.1731,0,0.0000
5.1774,0,0.0000
5.1817,0,0.0000
5.1860,0,0.0000
5.1903,0,0.0000
5.1946,0,0.0000
5.1989,0,0.0000
5.2032,0,0.0000
5.2075,0,0.0000
5.2118,0,0.0000
5.2161,0,0.0000
5.2204,0,0.0000
5.2249,0,0.0000
5.2292,0,0.0000
5.2335,0,0.0000
5.2378,0,0.0000
5.2421,0,0.0000
5.2464,0,0.0000
5.2507,0,0.0000
5.2550,0,0.0000
5.2593,0,0.0000
5.2636,0,0.0000
5.2679,0,0.0000
5.2722,0,0.0000
5.2765,0,0.0000
5.2808,0,0.0000
5.2851,0,0.0000
5.2894,0,0.0000
5.2938,0,0.0000
5.2981,0,0.0000
5.3023,0,0.0000
5.3068,0,0.0000
5.3111,0,0.0000
5.3154,0,0.0000
5.3199,0,0.0000
5.3242,0,0.0000
5.3285,0,0.0000
5.3329,0,0.0000
5.3371,0,0.0000
5.3414,0,0.0000
5.3457,0,0.0000
5.3500,0,0.0000
5.3543,0,0.0000
5.3586,0,0.0000
5.3629,0,0.0000
5.3672,0,0.0000
5.3721,0,0.0000
5.3765,0,0.0000
5.3808,0,0.0000
5.3851,0,0.0000
5.3894,0,0.0000
5.3937,0,0.0000
5.3980,0,0.0000
5.4023,0,0.0000
5.4066,0,0.0000
5.4109,0,0.0000
5.4152,0,0.0000
5.4195,0,0.0000
5.4238,0,0.0000
5.4281,0,0.0000
5.4324,0,0.0000
5.4367,0,0.0000
5.4410,0,0.0000
5.4453,0,0.0000
5.4496,0,0.0000
5.4540,0,0.0000
5.4583,0,0.0000
5.4625,0,0.0000
5.4668,0,0.0000
5.4711,0,0.0000
5.4755,0,0.0000
5.4798,0,0.0000
5.4840,0,0.0000
5.4883,0,0.0000
5.4927,0,0.0000
5.4970,0,0.0000
5.5013,0,0.0000
5.5056,0,0.0000
5.5099,0,0.0000
5.5142,0,0.0000
5.5185,0,0.0000
5.5228,0,0.0000
5.5272,0,0.0000
5.5314,0,0.0000
5.5358,0,0.0000
5.5401,0,0.0000
5.5444,0,0.0000
5.5486,0,0.0000
5.5529,0,0.0000
5.5573,0,0.0000
5.5615,0,0.0000
5.5658,0,0.0000
5.5701,0,0.0000
5.5746,0,0.0000
5.5789,0,0.0000
5.5832,0,0.0000
5.5875,0,0.0000
5.5918,0,0.0000
5.5965,0,0.0000
5.6009,0,0.0000
5.6051,0,0.0000
5.6094,0,0.0000
5.6137,0,0.0000
5.6180,0,0.0000
5.6223,0,0.0000
5.6266,0,0.0000
5.6309,0,0.0000
5.6352,0,0.0000
5.6396,0,0.0000
5.6438,0,0.0000
5.6481,0,0.0000
5.6524,0,0.0000
5.6567,0,0.0000
5.6610,0,0.0000
5.6653,0,0.0000
5.6696,0,0.0000
5.6739,0,0.0000
5.6782,0,0.0000
5.6825,0,0.0000
5.6868,0,0.0000
5.6911,0,0.0000
5.6954,0,0.0000
5.6997,0,0.0000
5.7040,0,0.0000
5.7083,0,0.0000
5.7126,0,0.0000
5.7169,0,0.0000
5.7213,0,0.0000
5.7256,0,0.0000
5.7299,0,0.0000
5.7342,0,0.0000
5.7385,0,0.0000
5.7428,0,0.0000
5.7471,0,0.0000
5.7514,0,0.0000
5.7557,0,0.0000
5.7600,0,0.0000
5.7643,0,0.0000
5.7686,0,0.0000
5.7730,0,0.0000
5.7773,0,0.0000
5.7816,0,0.0000
5.7859,0,0.0000
5.7902,0,0.0000
5.7945,0,0.0000
5.7988,0,0.0000
5.8031,0,0.0000
5.8074,182,0.5871
5.8117,1005,3.2419
5.8160,0,0.0000
5.8203,0,0.0000
5.8246,299,0.9645
5.8289,1006,3.2452
5.8332,1005,3.2419
5.8375,0,0.0000
5.8418,0,0.0000
5.8461,1004,3.2387
5.8504,1004,3.2387
5.8547,1001,3.2290
5.8590,0,0.0000
5.8633,56,0.1806
5.8676,1006,3.2452
5.8719,1004,3.2387
5.8762,304,0.9806
5.8805,0,0.0000
5.8848,888,2.8645
5.8891,1006,3.2452
5.8934,1006,3.2452
5.8978,0,0.0000
5.9021,0,0.0000
5.9064,1007,3.2484
5.9107,1005,3.2419
5.9149,870,2.8065
5.9192,0,0.0000
5.9235,124,0.4000
5.9278,1007,3.2484
5.9320,1006,3.2452
5.9363,99,0.3194
5.9406,0,0.0000
5.9448,878,2.8323
5.9491,1006,3.2452
5.9534,1006,3.2452
5.9576,0,0.0000
5.9619,0,0.0000
5.9661,1007,3.2484
5.9704,1006,3.2452
5.9747,898,2.8968
5.9790,0,0.0000
5.9833,69,0.2226
5.9876,1007,3.2484
5.9919,1005,3.2419
5.9962,5,0.0161
6.0006,0,0.0000
6.0049,0,0.0000
6.0092,0,0.0000
6.0135,0,0.0000
6.0178,0,0.0000
6.0221,0,0.0000
6.0264,0,0.0000
6.0307,0,0.0000
6.0350,0,0.0000
6.0393,0,0.0000
6.0436,0,0.0000
6.0479,0,0.0000
6.0522,0,0.0000
6.0565,0,0.0000
6.0608,0,0.0000
6.0651,0,0.0000
6.0694,0,0.0000
6.0737,0,0.0000
6.0780,1004,3.2387
6.0823,935,3.0161
6.0866,1004,3.2387
6.0909,1003,3.2355
6.0951,0,0.0000
6.0994,0,0.0000
6.1036,0,0.0000
6.1079,0,0.0000
6.1122,0,0.0000
6.1164,0,0.0000
6.1207,0,0.0000
6.1250,0,0.0000
6.1293,0,0.0000
6.1336,0,0.0000
6.1379,0,0.0000
6.1421,0,0.0000
6.1464,356,1.1484
6.1507,1005,3.2419
6.1549,0,0.0000
6.1599,0,0.0000
6.1643,810,2.6129
6.1688,1004,3.2387
6.1733,1005,3.2419
6.1782,0,0.0000
6.1827,0,0.0000
6.1879,0,0.0000
6.1922,0,0.0000
6.1964,0,0.0000
6.2007,0,0.0000
6.2050,0,0.0000
6.2092,0,0.0000
6.2135,0,0.0000
6.2177,0,0.0000
6.2220,0,0.0000
6.2263,0,0.0000
6.2306,0,0.0000
6.2348,0,0.0000
6.2391,0,0.0000
6.2434,0,0.0000
6.2477,0,0.0000
6.2519,0,0.0000
6.2562,0,0.0000
6.2605,0,0.0000
6.2647,0,0.0000
6.2690,0,0.0000
6.2733,0,0.0000
6.2776,0,0.0000
6.2818,0,0.0000
6.2861,0,0.0000
6.2903,0,0.0000
6.2946,0,0.0000
6.2989,0,0.0000
6.3031,0,0.0000
6.3074,0,0.0000
6.3117,0,0.0000
6.3159,0,0.0000
6.3202,0,0.0000
6.3245,0,0.0000
6.3287,0,0.0000
6.3330,0,0.0000
6.3373,0,0.0000
6.3415,0,0.0000
6.3458,0,0.0000
6.3501,0,0.0000
6.3543,0,0.0000
6.3586,0,0.0000
6.3629,0,0.0000
6.3671,0,0.0000
6.3714,0,0.0000
6.3757,0,0.0000
6.3800,0,0.0000
6.3843,0,0.0000
6.3886,0,0.0000
6.3929,0,0.0000
6.3972,0,0.0000
6.4015,0,0.0000
6.4058,0,0.0000
6.4101,0,0.0000
6.4144,0,0.0000
6.4187,0,0.0000
6.4230,0,0.0000
6.4273,0,0.0000
6.4316,0,0.0000
6.4359,0,0.0000
6.4402,0,0.0000
6.4445,0,0.0000
6.4488,0,0.0000
6.4531,0,0.0000
6.4574,0,0.0000
6.4617,0,0.0000
6.4660,0,0.0000
6.4703,0,0.0000
6.4746,0,0.0000
6.4790,0,0.0000
6.4834,0,0.0000
6.4876,0,0.0000
6.4920,0,0.0000
6.4963,0,0.0000
6.5006,0,0.0000
6.5049,0,0.0000
6.5092,0,0.0000
6.5134,0,0.0000
6.5177,0,0.0000
6.5221,0,0.0000
6.5264,0,0.0000
6.5306,0,0.0000
6.5349,0,0.0000
6.5393,0,0.0000
6.5436,0,0.0000
6.5478,0,0.0000
6.5521,0,0.0000
6.5564,0,0.0000
6.5608,0,0.0000
6.5650,0,0.0000
6.5693,0,0.0000
6.5736,0,0.0000
6.5779,0,0.0000
6.5822,0,0.0000
6.5865,0,0.0000
6.5908,0,0.0000
6.5950,0,0.0000
6.5993,0,0.0000
6.6036,0,0.0000
6.6078,0,0.0000
6.6120,0,0.0000
6.6163,0,0.0000
6.6206,0,0.0000
6.6248,0,0.0000
6.6291,0,0.0000
6.6333,0,0.0000
6.6376,0,0.0000
6.6419,0,0.0000
6.6461,0,0.0000
6.6504,0,0.0000
6.6549,0,0.0000
6.6592,0,0.0000
6.6637,0,0.0000
6.6679,0,0.0000
6.6722,0,0.0000
6.6764,0,0.0000
6.6807,0,0.0000
6.6850,0,0.0000
6.6892,0,0.0000
6.6934,0,0.0000
6.6977,0,0.0000
6.7020,0,0.0000
6.7062,0,0.0000
6.7105,0,0.0000
6.7147,0,0.0000
6.7190,0,0.0000
6.7233,0,0.0000
6.7275,0,0.0000
6.7318,0,0.0000
6.7362,0,0.0000
6.7405,0,0.0000
6.7448,0,0.0000
6.7491,0,0.0000
6.7534,0,0.0000
6.7577,0,0.0000
6.7620,0,0.0000
6.7662,0,0.0000
6.7705,0,0.0000
6.7748,0,0.0000
6.7791,0,0.0000
6.7834,0,0.0000
6.7878,0,0.0000
6.7921,0,0.0000
6.7964,0,0.0000
6.8007,0,0.0000
6.8051,0,0.0000
6.8094,0,0.0000
6.8137,0,0.0000
6.8181,0,0.0000
6.8225,0,0.0000
6.8268,0,0.0000
6.8311,0,0.0000
6.8355,0,0.0000
6.8398,0,0.0000
6.8442,0,0.0000
6.8485,0,0.0000
6.8528,0,0.0000
6.8571,0,0.0000
6.8615,0,0.0000
6.8658,0,0.0000
6.8701,0,0.0000
6.8745,0,0.0000
6.8788,0,0.0000
6.8832,0,0.0000
6.8875,0,0.0000
6.8918,0,0.0000
6.8961,0,0.0000
6.9004,0,0.0000
6.9047,0,0.0000
6.9090,0,0.0000
6.9132,0,0.0000
6.9175,0,0.0000
6.9218,0,0.0000
6.9261,0,0.0000
6.9304,0,0.0000
6.9347,0,0.0000
6.9390,0,0.0000
6.9433,0,0.0000
6.9476,0,0.0000
6.9519,0,0.0000
6.9562,0,0.0000
6.9605,0,0.0000
6.9648,0,0.0000
6.9691,0,0.0000
6.9734,0,0.0000
6.9777,0,0.0000
6.9819,0,0.0000
6.9862,0,0.0000
6.9906,0,0.0000
6.9948,0,0.0000
6.9991,0,0.0000
7.0034,0,0.0000
7.0077,0,0.0000
7.0120,0,0.0000
7.0163,0,0.0000
7.0206,0,0.0000
7.0249,0,0.0000
7.0292,0,0.0000
7.0334,0,0.0000
7.0377,0,0.0000
7.0420,0,0.0000
7.0463,0,0.0000
7.0506,0,0.0000
7.0549,0,0.0000
7.0592,0,0.0000
7.0635,0,0.0000
7.0678,0,0.0000
7.0721,0,0.0000
7.0764,0,0.0000
7.0807,0,0.0000
7.0849,0,0.0000
7.0893,0,0.0000
7.0936,0,0.0000
7.0980,0,0.0000
7.1023,0,0.0000
7.1066,0,0.0000
7.1110,0,0.0000
7.1153,0,0.0000
7.1196,0,0.0000
7.1239,0,0.0000
7.1283,0,0.0000
7.1327,0,0.0000
7.1370,0,0.0000
7.1414,0,0.0000
7.1457,0,0.0000
7.1500,0,0.0000
7.1543,0,0.0000
7.1587,0,0.0000
7.1630,0,0.0000
7.1673,0,0.0000
7.1717,0,0.0000
7.1760,0,0.0000
7.1803,0,0.0000
7.1846,0,0.0000
7.1890,0,0.0000
7.1933,0,0.0000
7.1976,0,0.0000
7.2019,0,0.0000
7.2062,0,0.0000
7.2105,0,0.0000
7.2148,0,0.0000
7.2191,0,0.0000
7.2234,0,0.0000
7.2276,0,0.0000
7.2319,0,0.0000
7.2362,0,0.0000
7.2405,0,0.0000
7.2448,0,0.0000
7.2491,0,0.0000
7.2534,0,0.0000
7.2577,0,0.0000
7.2620,0,0.0000
7.2663,1002,3.2323
7.2706,1004,3.2387
7.2749,0,0.0000
7.2792,0,0.0000
7.2834,790,2.5484
7.2877,1006,3.2452
7.2921,1004,3.2387
7.2964,0,0.0000
7.3006,0,0.0000
7.3049,1004,3.2387
7.3092,1006,3.2452
7.3135,292,0.9419
7.3178,0,0.0000
7.3221,0,0.0000
7.3264,0,0.0000
7.3307,0,0.0000
7.3350,1006,3.2452
7.3393,1003,3.2355
7.3436,0,0.0000
7.3479,1004,3.2387
7.3522,1004,3.2387
7.3565,1004,3.2387
7.3608,1004,3.2387
7.3651,1007,3.2484
7.3694,1004,3.2387
7.3737,1007,3.2484
7.3780,1004,3.2387
7.3823,1003,3.2355
7.3866,1001,3.2290
7.3909,1006,3.2452
7.3953,1005,3.2419
7.3996,1005,3.2419
7.4039,1005,3.2419
7.4083,1006,3.2452
7.4126,999,3.2226
7.4170,1006,3.2452
7.4213,1005,3.2419
7.4256,1006,3.2452
7.4299,1004,3.2387
7.4343,1005,3.2419
7.4386,1005,3.2419
7.4429,1006,3.2452
7.4473,1004,3.2387
7.4516,1003,3.2355
7.4559,1005,3.2419
7.4603,1006,3.2452
7.4646,1006,3.2452
7.4689,1005,3.2419
7.4733,1004,3.2387
7.4777,1006,3.2452
7.4820,1006,3.2452
7.4864,1005,3.2419
7.4908,1006,3.2452
7.4951,1007,3.2484
7.4994,1005,3.2419
7.5037,1005,3.2419
7.5080,1007,3.2484
7.5123,1006,3.2452
7.5166,1007,3.2484
7.5209,1005,3.2419
7.5252,1006,3.2452
7.5294,1005,3.2419
7.5337,1004,3.2387
7.5380,1004,3.2387
7.5423,1006,3.2452
7.5466,1007,3.2484
7.5509,1004,3.2387
7.5552,1006,3.2452
7.5595,1008,3.2516
7.5638,1007,3.2484
7.5681,1004,3.2387
7.5724,1005,3.2419
7.5767,1005,3.2419
7.5810,1005,3.2419
7.5853,1007,3.2484
7.5896,1006,3.2452
7.5939,1006,3.2452
7.5982,1003,3.2355
7.6025,1005,3.2419
7.6068,1003,3.2355
7.6111,1006,3.2452
7.6154,1006,3.2452
7.6197,1005,3.2419
7.6240,1006,3.2452
7.6283,1006,3.2452
7.6326,1006,3.2452
7.6369,1006,3.2452
7.6412,1005,3.2419
7.6455,1004,3.2387
7.6498,1004,3.2387
7.6541,1004,3.2387
7.6584,1007,3.2484
7.6627,1006,3.2452
7.6670,1004,3.2387
7.6713,1004,3.2387
7.6756,1007,3.2484
7.6799,1006,3.2452
7.6842,1006,3.2452
7.6885,1006,3.2452
7.6928,1006,3.2452
7.6971,1006,3.2452
7.7015,1006,3.2452
7.7059,1007,3.2484
7.7103,1006,3.2452
7.7147,1005,3.2419
7.7192,1006,3.2452
7.7236,1007,3.2484
7.7280,1007,3.2484
7.7323,1007,3.2484
7.7367,1006,3.2452
7.7411,1004,3.2387
7.7456,1006,3.2452
7.7499,1006,3.2452
7.7566,1007,3.2484
7.7611,1007,3.2484
7.7655,1004,3.2387
7.7698,1005,3.2419
7.7740,1004,3.2387
7.7783,1004,3.2387
7.7828,1006,3.2452
7.7871,1007,3.2484
7.7913,1006,3.2452
7.7955,1004,3.2387
7.7997,1006,3.2452
7.8039,1007,3.2484
7.8080,1004,3.2387
7.8122,1004,3.2387
7.8163,1004,3.2387
7.8205,1006,3.2452
7.8247,1004,3.2387
7.8289,1004,3.2387
7.8330,1006,3.2452
7.8372,1007,3.2484
7.8414,1006,3.2452
7.8456,1005,3.2419
7.8497,1004,3.2387
7.8539,1007,3.2484
7.8581,1004,3.2387
7.8622,1005,3.2419
7.8664,1005,3.2419
7.8706,1007,3.2484
7.8747,1006,3.2452
7.8789,1005,3.2419
7.8831,1004,3.2387
7.8873,1005,3.2419
7.8914,1006,3.2452
7.8956,1007,3.2484
7.8998,1004,3.2387
7.9040,1006,3.2452
7.9081,1005,3.2419
7.9123,1006,3.2452
7.9165,1004,3.2387
7.9207,1007,3.2484
7.9249,1006,3.2452
7.9290,1004,3.2387
7.9332,1007,3.2484
7.9374,1006,3.2452
7.9415,1005,3.2419
7.9457,1006,3.2452
7.9499,1004,3.2387
7.9541,1006,3.2452
7.9582,1007,3.2484
7.9624,1004,3.2387
7.9666,1005,3.2419
7.9708,1007,3.2484
7.9749,1004,3.2387
7.9791,1004,3.2387
7.9832,1005,3.2419
7.9874,1007,3.2484
7.9916,1004,3.2387
7.9958,1007,3.2484
7.9999,1007,3.2484
8.0041,1005,3.2419
8.0083,1006,3.2452
8.0125,1004,3.2387
8.0166,1007,3.2484
8.0208,1007,3.2484
8.0250,1006,3.2452
8.0291,1006,3.2452
8.0333,1004,3.2387
8.0375,1007,3.2484
8.0416,1006,3.2452
8.0458,1005,3.2419
8.0500,1004,3.2387
8.0542,1005,3.2419
8.0583,1006,3.2452
8.0625,1007,3.2484
8.0667,1006,3.2452
8.0708,1004,3.2387
8.0750,1004,3.2387
8.0792,1006,3.2452
8.0833,1007,3.2484
8.0875,1004,3.2387
8.0921,1007,3.2484
8.0963,1005,3.2419
8.1005,1007,3.2484
8.1046,1007,3.2484
8.1088,1006,3.2452
8.1130,1003,3.2355
8.1172,1005,3.2419
8.1213,1006,3.2452
8.1255,1004,3.2387
8.1297,1006,3.2452
8.1338,1005,3.2419
8.1380,0,0.0000
8.1422,0,0.0000
8.1464,18,0.0581
8.1505,1006,3.2452
8.1547,0,0.0000
8.1589,0,0.0000
8.1630,0,0.0000
8.1672,0,0.0000
8.1714,115,0.3710
8.1755,0,0.0000
8.1797,0,0.0000
8.1839,0,0.0000
8.1881,0,0.0000
8.1922,0,0.0000
8.1964,0,0.0000
8.2006,0,0.0000
8.2047,0,0.0000
8.2089,0,0.0000
8.2131,0,0.0000
8.2172,0,0.0000
8.2214,0,0.0000
8.2256,0,0.0000
8.2297,0,0.0000
8.2339,0,0.0000
8.2380,0,0.0000
8.2422,0,0.0000
8.2464,0,0.0000
8.2506,0,0.0000
8.2547,0,0.0000
8.2589,0,0.0000
8.2631,0,0.0000
8.2673,0,0.0000
8.2714,0,0.0000
8.2756,0,0.0000
8.2798,0,0.0000
8.2839,0,0.0000
8.2881,0,0.0000
8.2923,0,0.0000
8.2965,0,0.0000
8.3006,0,0.0000
8.3048,0,0.0000
8.3090,0,0.0000
8.3131,0,0.0000
8.3173,0,0.0000
8.3215,0,0.0000
8.3256,0,0.0000
8.3298,0,0.0000
8.3340,0,0.0000
8.3381,0,0.0000
8.3423,0,0.0000
8.3465,0,0.0000
8.3506,0,0.0000
8.3548,0,0.0000
8.3590,0,0.0000
8.3631,0,0.0000
8.3673,0,0.0000
8.3715,0,0.0000
8.3757,0,0.0000
8.3798,0,0.0000
8.3840,0,0.0000
8.3881,0,0.0000
8.3923,0,0.0000
8.3965,0,0.0000
8.4007,0,0.0000
8.4048,0,0.0000
8.4090,0,0.0000
8.4132,0,0.0000
8.4174,0,0.0000
8.4215,0,0.0000
8.4257,0,0.0000
8.4299,0,0.0000
8.4340,0,0.0000
8.4382,0,0.0000
8.4424,0,0.0000
8.4466,0,0.0000
8.4507,0,0.0000
8.4549,0,0.0000
8.4591,0,0.0000
8.4632,0,0.0000
8.4674,0,0.0000
8.4716,0,0.0000
8.4758,0,0.0000
8.4799,0,0.0000
8.4841,0,0.0000
8.4883,0,0.0000
8.4924,0,0.0000
8.4967,0,0.0000
8.5009,0,0.0000
8.5051,0,0.0000
8.5095,0,0.0000
8.5138,0,0.0000
8.5181,0,0.0000
8.5224,0,0.0000
8.5267,0,0.0000
8.5310,0,0.0000
8.5353,0,0.0000
8.5396,0,0.0000
8.5439,0,0.0000
8.5482,0,0.0000
8.5526,0,0.0000
8.5569,0,0.0000
8.5612,0,0.0000
8.5655,0,0.0000
8.5698,0,0.0000
8.5741,0,0.0000
8.5785,0,0.0000
8.5828,0,0.0000
8.5871,0,0.0000
8.5922,0,0.0000
8.5965,0,0.0000
8.6008,0,0.0000
8.6051,0,0.0000
8.6094,0,0.0000
8.6137,0,0.0000
8.6180,0,0.0000
8.6223,0,0.0000
8.6266,0,0.0000
8.6309,0,0.0000
8.6352,0,0.0000
8.6395,0,0.0000
8.6438,0,0.0000
8.6481,0,0.0000
8.6524,0,0.0000
8.6567,0,0.0000
8.6610,0,0.0000
8.6653,0,0.0000
8.6696,55,0.1774
8.6739,0,0.0000
8.6782,0,0.0000
8.6825,0,0.0000
8.6868,0,0.0000
8.6911,1003,3.2355
8.6954,0,0.0000
8.6998,0,0.0000
8.7041,0,0.0000
8.7084,532,1.7161
8.7127,1003,3.2355
8.7171,0,0.0000
8.7214,0,0.0000
8.7256,0,0.0000
8.7299,1006,3.2452
8.7342,913,2.9452
8.7386,0,0.0000
8.7431,0,0.0000
8.7474,671,2.1645
8.7517,1006,3.2452
8.7560,1004,3.2387
8.7603,0,0.0000
8.7646,699,2.2548
8.7689,1005,3.2419
8.7732,1006,3.2452
8.7775,1004,3.2387
8.7818,1004,3.2387
8.7861,1006,3.2452
8.7904,1005,3.2419
8.7947,1006,3.2452
8.7991,1005,3.2419
8.8034,1006,3.2452
8.8077,1006,3.2452
8.8122,1006,3.2452
8.8165,1007,3.2484
8.8208,1005,3.2419
8.8251,1007,3.2484
8.8294,1006,3.2452
8.8337,1004,3.2387
8.8381,1005,3.2419
8.8424,1005,3.2419
8.8467,1006,3.2452
8.8510,1005,3.2419
8.8553,1006,3.2452
8.8596,1004,3.2387
8.8639,1006,3.2452
8.8682,1005,3.2419
8.8725,1005,3.2419
8.8768,1005,3.2419
8.8811,1006,3.2452
8.8854,1005,3.2419
8.8897,1004,3.2387
8.8941,1007,3.2484
8.8985,1005,3.2419
8.9028,1005,3.2419
8.9071,1007,3.2484
8.9114,1006,3.2452
8.9157,1006,3.2452
8.9200,1007,3.2484
8.9243,1004,3.2387
8.9286,1005,3.2419
8.9329,1006,3.2452
8.9372,1006,3.2452
8.9415,1007,3.2484
8.9459,1004,3.2387
8.9502,1006,3.2452
8.9546,1006,3.2452
8.9588,1005,3.2419
8.9631,1006,3.2452
8.9673,1006,3.2452
8.9716,1004,3.2387
8.9758,1006,3.2452
8.9801,1005,3.2419
8.9843,1005,3.2419
8.9886,1006,3.2452
8.9928,1007,3.2484
8.9971,1006,3.2452
9.0014,1006,3.2452
9.0057,1006,3.2452
9.0100,1005,3.2419
9.0143,1006,3.2452
9.0186,1006,3.2452
9.0229,1006,3.2452
9.0272,1005,3.2419
9.0315,1005,3.2419
9.0357,1006,3.2452
9.0401,1007,3.2484
9.0443,1007,3.2484
9.0486,1006,3.2452
9.0529,1006,3.2452
9.0572,1005,3.2419
9.0615,1006,3.2452
9.0657,1003,3.2355
9.0700,1005,3.2419
9.0743,1006,3.2452
9.0786,1005,3.2419
9.0829,1004,3.2387
9.0872,1007,3.2484
9.0915,1006,3.2452
9.0958,1005,3.2419
9.1001,1006,3.2452
9.1044,1005,3.2419
9.1086,1004,3.2387
9.1130,1002,3.2323
9.1173,1005,3.2419
9.1216,1005,3.2419
9.1259,1005,3.2419
9.1301,1006,3.2452
9.1344,1005,3.2419
9.1387,1005,3.2419
9.1430,1006,3.2452
9.1473,1006,3.2452
9.1516,1005,3.2419
9.1558,1006,3.2452
9.1601,1006,3.2452
9.1644,1004,3.2387
9.1687,1005,3.2419
9.1730,1006,3.2452
9.1773,1006,3.2452
9.1816,1006,3.2452
9.1859,1006,3.2452
9.1902,1006,3.2452
9.1944,1006,3.2452
9.1987,1005,3.2419
9.2030,1006,3.2452
9.2073,1005,3.2419
9.2116,1005,3.2419
9.2159,1005,3.2419
9.2202,1006,3.2452
9.2245,1005,3.2419
9.2288,1006,3.2452
9.2330,1005,3.2419
9.2374,1005,3.2419
9.2416,1005,3.2419
9.2459,1006,3.2452
9.2503,1002,3.2323
9.2546,1005,3.2419
9.2589,1007,3.2484
9.2632,1006,3.2452
9.2675,1005,3.2419
9.2718,1006,3.2452
9.2761,1005,3.2419
9.2804,1004,3.2387
9.2847,1005,3.2419
9.2889,1006,3.2452
9.2932,1006,3.2452
9.2975,1006,3.2452
9.3018,1005,3.2419
9.3062,1006,3.2452
9.3105,1006,3.2452
9.3149,1005,3.2419
9.3192,1005,3.2419
9.3235,1007,3.2484
9.3279,1004,3.2387
9.3323,1004,3.2387
9.3366,1006,3.2452
9.3409,1005,3.2419
9.3453,1007,3.2484
9.3496,1006,3.2452
9.3540,1004,3.2387
9.3583,1006,3.2452
9.3627,1007,3.2484
9.3670,1006,3.2452
9.3713,1005,3.2419
9.3756,1004,3.2387
9.3799,1005,3.2419
9.3841,1005,3.2419
9.3884,1007,3.2484
9.3928,1005,3.2419
9.3971,1005,3.2419
9.4014,1006,3.2452
9.4057,1006,3.2452
9.4100,1004,3.2387
9.4143,1005,3.2419
9.4187,1006,3.2452
9.4229,1007,3.2484
9.4272,1002,3.2323
9.4315,1006,3.2452
9.4357,1006,3.2452
9.4400,1007,3.2484
9.4442,1006,3.2452
9.4484,1004,3.2387
9.4528,1006,3.2452
9.4570,1005,3.2419
9.4613,1006,3.2452
9.4655,1004,3.2387
9.4698,1005,3.2419
9.4740,1007,3.2484
9.4783,1006,3.2452
9.4826,1006,3.2452
9.4869,1005,3.2419
9.4911,1004,3.2387
9.4954,1007,3.2484
9.4997,1005,3.2419
9.5039,1006,3.2452
9.5082,1006,3.2452
9.5124,1005,3.2419
9.5167,1006,3.2452
9.5210,1006,3.2452
9.5253,1006,3.2452
9.5296,1005,3.2419
9.5339,1004,3.2387
9.5382,1006,3.2452
9.5425,1007,3.2484
9.5467,1005,3.2419
9.5510,1006,3.2452
9.5553,1006,3.2452
9.5596,1006,3.2452
9.5639,1007,3.2484
9.5682,1005,3.2419
9.5724,1006,3.2452
9.5767,1007,3.2484
9.5810,1006,3.2452
9.5853,1005,3.2419
9.5896,1006,3.2452
9.5939,1004,3.2387
9.5982,1006,3.2452
9.6026,1006,3.2452
9.6069,1006,3.2452
9.6112,1006,3.2452
9.6155,1007,3.2484
9.6198,1005,3.2419
9.6241,1006,3.2452
9.6284,1005,3.2419
9.6327,1006,3.2452
9.6370,1006,3.2452
9.6413,1006,3.2452
9.6456,1005,3.2419
9.6499,1005,3.2419
9.6542,1006,3.2452
9.6585,1006,3.2452
9.6628,1006,3.2452
9.6670,1005,3.2419
9.6713,1005,3.2419
9.6756,1007,3.2484
9.6799,1006,3.2452
9.6841,1005,3.2419
9.6884,1004,3.2387
9.6928,1005,3.2419
9.6971,1006,3.2452
9.7014,1007,3.2484
9.7056,1006,3.2452
9.7100,1006,3.2452
9.7143,1004,3.2387
9.7185,1006,3.2452
9.7228,1005,3.2419
9.7271,1006,3.2452
9.7314,1006,3.2452
9.7357,1007,3.2484
9.7400,1004,3.2387
9.7443,1007,3.2484
9.7486,1005,3.2419
9.7529,1004,3.2387
9.7572,1006,3.2452
9.7615,1006,3.2452
9.7658,1006,3.2452
9.7701,1006,3.2452
9.7744,1004,3.2387
9.7786,1005,3.2419
9.7829,1007,3.2484
9.7872,1005,3.2419
9.7916,1005,3.2419
9.7959,1004,3.2387
9.8003,1006,3.2452
9.8046,1004,3.2387
9.8090,1005,3.2419
9.8133,1006,3.2452
9.8177,1005,3.2419
9.8220,1006,3.2452
9.8264,1006,3.2452
9.8308,1005,3.2419
9.8351,1005,3.2419
9.8395,1007,3.2484
9.8438,1004,3.2387
9.8481,1004,3.2387
9.8524,1003,3.2355
9.8567,1006,3.2452
9.8610,1006,3.2452
9.8653,1006,3.2452
9.8695,1005,3.2419
9.8738,1006,3.2452
9.8780,1006,3.2452
9.8823,1006,3.2452
9.8865,1006,3.2452
9.8908,1006,3.2452
9.8950,1004,3.2387
9.8993,1007,3.2484
9.9036,1004,3.2387
9.9078,1004,3.2387
9.9121,1005,3.2419
9.9163,1004,3.2387
9.9206,1007,3.2484
9.9248,1006,3.2452
9.9291,1005,3.2419
9.9338,1004,3.2387
9.9382,1005,3.2419
9.9426,1007,3.2484
9.9469,1005,3.2419
9.9512,1006,3.2452
9.9555,1005,3.2419
9.9598,1007,3.2484
9.9640,1005,3.2419
9.9683,1006,3.2452
9.9726,1006,3.2452
9.9769,1005,3.2419
9.9812,1005,3.2419
9.9855,1005,3.2419
9.9898,1006,3.2452
9.9940,1006,3.2452
9.9984,1006,3.2452
