time_s,adc_raw,voltage
0.0000,426,1.3742
0.0141,0,0.0000
0.0184,0,0.0000
0.0228,912,2.9419
0.0271,0,0.0000
0.0315,0,0.0000
0.0360,0,0.0000
0.0404,713,2.3000
0.0448,46,0.1484
0.0492,0,0.0000
0.0537,0,0.0000
0.0581,0,0.0000
0.0627,997,3.2161
0.0672,0,0.0000
0.0714,0,0.0000
0.0756,0,0.0000
0.0797,275,0.8871
0.0839,453,1.4613
0.0881,0,0.0000
0.0923,0,0.0000
0.0965,0,0.0000
0.1006,762,2.4581
0.1048,0,0.0000
0.1089,0,0.0000
0.1131,0,0.0000
0.1172,0,0.0000
0.1214,1004,3.2387
0.1256,0,0.0000
0.1297,0,0.0000
0.1339,0,0.0000
0.1381,0,0.0000
0.1422,994,3.2065
0.1464,0,0.0000
0.1506,0,0.0000
0.1548,0,0.0000
0.1589,0,0.0000
0.1631,788,2.5419
0.1673,0,0.0000
0.1714,0,0.0000
0.1756,0,0.0000
0.1798,299,0.9645
0.1839,346,1.1161
0.1881,0,0.0000
0.1923,0,0.0000
0.1965,0,0.0000
0.2006,716,2.3097
0.2048,0,0.0000
0.2089,0,0.0000
0.2131,0,0.0000
0.2173,0,0.0000
0.2215,1002,3.2323
0.2256,0,0.0000
0.2298,0,0.0000
0.2340,0,0.0000
0.2381,0,0.0000
0.2423,989,3.1903
0.2465,0,0.0000
0.2506,0,0.0000
0.2548,0,0.0000
0.2589,0,0.0000
0.2631,791,2.5516
0.2673,0,0.0000
0.2714,0,0.0000
0.2756,0,0.0000
0.2798,351,1.1323
0.2839,320,1.0323
0.2881,0,0.0000
0.2923,0,0.0000
0.2964,0,0.0000
0.3006,842,2.7161
0.3048,0,0.0000
0.3089,0,0.0000
0.3131,0,0.0000
0.3173,0,0.0000
0.3214,1001,3.2290
0.3256,0,0.0000
0.3297,0,0.0000
0.3339,0,0.0000
0.3381,0,0.0000
0.3422,959,3.0935
0.3464,0,0.0000
0.3505,0,0.0000
0.3547,0,0.0000
0.3589,0,0.0000
0.3631,702,2.2645
0.3672,0,0.0000
0.3714,0,0.0000
0.3755,0,0.0000
0.3797,445,1.4355
0.3839,329,1.0613
0.3881,0,0.0000
0.3923,0,0.0000
0.3965,0,0.0000
0.4006,969,3.1258
0.4048,0,0.0000
0.4090,0,0.0000
0.4131,0,0.0000
0.4173,0,0.0000
0.4215,947,3.0548
0.4256,0,0.0000
0.4298,0,0.0000
0.4340,0,0.0000
0.4382,0,0.0000
0.4423,999,3.2226
0.4465,0,0.0000
0.4507,0,0.0000
0.4548,0,0.0000
0.4590,112,0.3613
0.4632,640,2.0645
0.4673,0,0.0000
0.4715,0,0.0000
0.4756,0,0.0000
0.4798,525,1.6935
0.4840,81,0.2613
0.4882,0,0.0000
0.4923,0,0.0000
0.4965,0,0.0000
0.5007,973,3.1387
0.5049,0,0.0000
0.5090,0,0.0000
0.5132,0,0.0000
0.5173,0,0.0000
0.5215,1003,3.2355
0.5257,0,0.0000
0.5298,0,0.0000
0.5340,0,0.0000
0.5382,0,0.0000
0.5423,927,2.9903
0.5465,0,0.0000
0.5507,0,0.0000
0.5548,0,0.0000
0.5590,103,0.3323
0.5632,589,1.9000
0.5673,0,0.0000
0.5715,0,0.0000
0.5757,0,0.0000
0.5798,549,1.7710
0.5840,117,0.3774
0.5881,0,0.0000
0.5923,0,0.0000
0.5965,0,0.0000
0.6007,987,3.1839
0.6048,0,0.0000
0.6090,0,0.0000
0.6131,0,0.0000
0.6173,0,0.0000
0.6215,573,1.8484
0.6256,0,0.0000
0.6298,0,0.0000
0.6340,0,0.0000
0.6381,0,0.0000
0.6423,1000,3.2258
0.6465,0,0.0000
0.6506,0,0.0000
0.6548,0,0.0000
0.6589,343,1.1065
0.6631,801,2.5839
0.6673,0,0.0000
0.6714,0,0.0000
0.6756,0,0.0000
0.6797,638,2.0581
0.6839,206,0.6645
0.6880,0,0.0000
0.6922,0,0.0000
0.6963,0,0.0000
0.7005,953,3.0742
0.7047,0,0.0000
0.7088,0,0.0000
0.7130,0,0.0000
0.7171,0,0.0000
0.7213,1003,3.2355
0.7254,0,0.0000
0.7296,0,0.0000
0.7338,0,0.0000
0.7379,0,0.0000
0.7421,977,3.1516
0.7462,0,0.0000
0.7504,0,0.0000
0.7546,0,0.0000
0.7587,0,0.0000
0.7629,28,0.0903
0.7670,0,0.0000
0.7712,0,0.0000
0.7753,0,0.0000
0.7795,655,2.1129
0.7837,369,1.1903
0.7878,0,0.0000
0.7920,0,0.0000
0.7961,0,0.0000
0.8003,942,3.0387
0.8045,0,0.0000
0.8086,0,0.0000
0.8128,0,0.0000
0.8170,0,0.0000
0.8211,1004,3.2387
0.8253,0,0.0000
0.8294,0,0.0000
0.8336,0,0.0000
0.8378,0,0.0000
0.8419,971,3.1323
0.8461,0,0.0000
0.8503,0,0.0000
0.8544,0,0.0000
0.8586,117,0.3774
0.8627,671,2.1645
0.8669,0,0.0000
0.8711,0,0.0000
0.8752,0,0.0000
0.8794,295,0.9516
0.8835,103,0.3323
0.8877,0,0.0000
0.8919,0,0.0000
0.8960,0,0.0000
0.9002,1004,3.2387
0.9044,0,0.0000
0.9085,0,0.0000
0.9127,0,0.0000
0.9169,0,0.0000
0.9210,1004,3.2387
0.9252,0,0.0000
0.9294,0,0.0000
0.9335,0,0.0000
0.9377,0,0.0000
0.9418,960,3.0968
0.9460,0,0.0000
0.9502,0,0.0000
0.9544,0,0.0000
0.9586,116,0.3742
0.9628,485,1.5645
0.9672,0,0.0000
0.9716,0,0.0000
0.9760,0,0.0000
0.9803,934,3.0129
0.9848,0,0.0000
0.9891,0,0.0000
0.9934,0,0.0000
0.9977,0,0.0000
1.0020,875,2.8226
1.0063,0,0.0000
1.0106,0,0.0000
1.0149,0,0.0000
1.0192,440,1.4194
1.0234,175,0.5645
1.0277,0,0.0000
1.0321,0,0.0000
1.0363,0,0.0000
1.0406,1002,3.2323
1.0449,0,0.0000
1.0492,0,0.0000
1.0535,0,0.0000
1.0578,0,0.0000
1.0621,787,2.5387
1.0664,0,0.0000
1.0707,0,0.0000
1.0749,0,0.0000
1.0792,387,1.2484
1.0834,78,0.2516
1.0876,0,0.0000
1.0919,0,0.0000
1.0961,0,0.0000
1.1003,978,3.1548
1.1046,0,0.0000
1.1088,0,0.0000
1.1131,0,0.0000
1.1173,0,0.0000
1.1215,864,2.7871
1.1258,0,0.0000
1.1300,0,0.0000
1.1343,0,0.0000
1.1385,246,0.7935
1.1427,596,1.9226
1.1470,0,0.0000
1.1512,0,0.0000
1.1555,0,0.0000
1.1597,796,2.5677
1.1640,0,0.0000
1.1683,0,0.0000
1.1726,0,0.0000
1.1769,0,0.0000
1.1811,481,1.5516
1.1854,0,0.0000
1.1897,0,0.0000
1.1940,0,0.0000
1.1983,147,0.4742
1.2026,617,1.9903
1.2069,0,0.0000
1.2112,0,0.0000
1.2155,0,0.0000
1.2198,1003,3.2355
1.2241,0,0.0000
1.2284,0,0.0000
1.2327,0,0.0000
1.2370,0,0.0000
1.2413,997,3.2161
1.2456,0,0.0000
1.2498,0,0.0000
1.2541,0,0.0000
1.2585,176,0.5677
1.2628,374,1.2065
1.2671,0,0.0000
1.2714,0,0.0000
1.2757,0,0.0000
1.2800,915,2.9516
1.2843,0,0.0000
1.2886,0,0.0000
1.2929,0,0.0000
1.2972,0,0.0000
1.3015,990,3.1935
1.3058,0,0.0000
1.3101,0,0.0000
1.3144,0,0.0000
1.3187,385,1.2419
1.3230,231,0.7452
1.3272,0,0.0000
1.3315,0,0.0000
1.3358,0,0.0000
1.3401,1001,3.2290
1.3444,0,0.0000
1.3487,0,0.0000
1.3530,0,0.0000
1.3573,0,0.0000
1.3616,929,2.9968
1.3659,0,0.0000
1.3702,0,0.0000
1.3745,0,0.0000
1.3788,465,1.5000
1.3831,172,0.5548
1.3874,0,0.0000
1.3917,0,0.0000
1.3960,0,0.0000
1.4003,1004,3.2387
1.4046,0,0.0000
1.4089,0,0.0000
1.4132,0,0.0000
1.4174,0,0.0000
1.4218,537,1.7323
1.4260,0,0.0000
1.4303,0,0.0000
1.4346,0,0.0000
1.4389,390,1.2581
1.4432,84,0.2710
1.4475,0,0.0000
1.4518,0,0.0000
1.4561,0,0.0000
1.4604,1005,3.2419
1.4647,0,0.0000
1.4690,0,0.0000
1.4734,0,0.0000
1.4777,5,0.0161
1.4820,806,2.6000
1.4862,0,0.0000
1.4905,0,0.0000
1.4947,0,0.0000
1.4990,600,1.9355
1.5033,0,0.0000
1.5075,0,0.0000
1.5118,0,0.0000
1.5160,0,0.0000
1.5202,1003,3.2355
1.5245,0,0.0000
1.5288,0,0.0000
1.5330,0,0.0000
1.5373,0,0.0000
1.5415,857,2.7645
1.5458,0,0.0000
1.5501,0,0.0000
1.5544,0,0.0000
1.5586,255,0.8226
1.5629,71,0.2290
1.5671,0,0.0000
1.5713,0,0.0000
1.5756,0,0.0000
1.5800,1004,3.2387
1.5844,0,0.0000
1.5886,0,0.0000
1.5929,0,0.0000
1.5972,0,0.0000
1.6015,907,2.9258
1.6058,0,0.0000
1.6101,0,0.0000
1.6144,0,0.0000
1.6186,478,1.5419
1.6229,43,0.1387
1.6272,0,0.0000
1.6315,0,0.0000
1.6358,0,0.0000
1.6401,1004,3.2387
1.6444,0,0.0000
1.6487,0,0.0000
1.6530,0,0.0000
1.6573,0,0.0000
1.6616,762,2.4581
1.6659,0,0.0000
1.6701,0,0.0000
1.6746,0,0.0000
1.6788,575,1.8548
1.6831,0,0.0000
1.6874,0,0.0000
1.6916,0,0.0000
1.6959,0,0.0000
1.7001,668,2.1548
1.7044,0,0.0000
1.7087,0,0.0000
1.7129,0,0.0000
1.7172,0,0.0000
1.7214,366,1.1806
1.7257,0,0.0000
1.7300,0,0.0000
1.7342,0,0.0000
1.7385,831,2.6806
1.7427,340,1.0968
1.7470,0,0.0000
1.7513,0,0.0000
1.7556,0,0.0000
1.7598,1004,3.2387
1.7641,0,0.0000
1.7683,0,0.0000
1.7726,0,0.0000
1.7769,0,0.0000
1.7812,937,3.0226
1.7855,0,0.0000
1.7898,0,0.0000
1.7941,0,0.0000
1.7984,201,0.6484
1.8026,0,0.0000
1.8070,0,0.0000
1.8112,0,0.0000
1.8155,0,0.0000
1.8198,1004,3.2387
1.8241,0,0.0000
1.8283,0,0.0000
1.8327,0,0.0000
1.8369,0,0.0000
1.8412,825,2.6613
1.8455,0,0.0000
1.8498,0,0.0000
1.8541,0,0.0000
1.8584,67,0.2161
1.8627,0,0.0000
1.8670,0,0.0000
1.8713,0,0.0000
1.8756,0,0.0000
1.8799,1005,3.2419
1.8842,0,0.0000
1.8885,0,0.0000
1.8928,0,0.0000
1.8971,0,0.0000
1.9014,848,2.7355
1.9056,0,0.0000
1.9099,0,0.0000
1.9142,0,0.0000
1.9185,545,1.7581
1.9228,0,0.0000
1.9271,0,0.0000
1.9313,0,0.0000
1.9356,0,0.0000
1.9399,1001,3.2290
1.9442,0,0.0000
1.9485,0,0.0000
1.9528,0,0.0000
1.9571,0,0.0000
1.9614,773,2.4935
1.9657,0,0.0000
1.9700,0,0.0000
1.9743,0,0.0000
1.9785,543,1.7516
1.9837,0,0.0000
1.9880,0,0.0000
1.9923,0,0.0000
1.9966,0,0.0000
2.0008,679,2.1903
2.0051,0,0.0000
2.0094,0,0.0000
2.0136,0,0.0000
2.0179,472,1.5226
2.0222,465,1.5000
2.0264,0,0.0000
2.0307,0,0.0000
2.0349,0,0.0000
2.0392,1004,3.2387
2.0435,0,0.0000
2.0477,0,0.0000
2.0520,0,0.0000
2.0562,0,0.0000
2.0605,995,3.2097
2.0648,0,0.0000
2.0691,0,0.0000
2.0733,0,0.0000
2.0776,91,0.2935
2.0819,266,0.8581
2.0862,0,0.0000
2.0905,0,0.0000
2.0948,0,0.0000
2.0991,1002,3.2323
2.1034,0,0.0000
2.1077,0,0.0000
2.1120,0,0.0000
2.1163,0,0.0000
2.1206,966,3.1161
2.1249,0,0.0000
2.1292,0,0.0000
2.1335,0,0.0000
2.1378,96,0.3097
2.1421,105,0.3387
2.1464,0,0.0000
2.1506,0,0.0000
2.1550,0,0.0000
2.1592,1004,3.2387
2.1636,0,0.0000
2.1679,0,0.0000
2.1721,0,0.0000
2.1764,0,0.0000
2.1808,928,2.9935
2.1851,0,0.0000
2.1894,0,0.0000
2.1937,0,0.0000
2.1979,347,1.1194
2.2022,161,0.5194
2.2065,0,0.0000
2.2107,0,0.0000
2.2150,0,0.0000
2.2192,1004,3.2387
2.2235,0,0.0000
2.2278,0,0.0000
2.2320,0,0.0000
2.2363,0,0.0000
2.2406,973,3.1387
2.2449,0,0.0000
2.2492,0,0.0000
2.2535,0,0.0000
2.2577,332,1.0710
2.2620,332,1.0710
2.2663,0,0.0000
2.2706,0,0.0000
2.2748,0,0.0000
2.2791,1004,3.2387
2.2834,0,0.0000
2.2877,0,0.0000
2.2919,0,0.0000
2.2962,0,0.0000
2.3005,964,3.1097
2.3048,0,0.0000
2.3091,0,0.0000
2.3134,0,0.0000
2.3176,311,1.0032
2.3220,217,0.7000
2.3263,0,0.0000
2.3305,0,0.0000
2.3348,0,0.0000
2.3391,1000,3.2258
2.3434,0,0.0000
2.3478,0,0.0000
2.3520,0,0.0000
2.3563,0,0.0000
2.3606,887,2.8613
2.3649,0,0.0000
2.3692,0,0.0000
2.3735,0,0.0000
2.3778,457,1.4742
2.3821,201,0.6484
2.3864,0,0.0000
2.3907,0,0.0000
2.3950,0,0.0000
2.3993,1004,3.2387
2.4036,0,0.0000
2.4079,0,0.0000
2.4122,0,0.0000
2.4165,0,0.0000
2.4207,849,2.7387
2.4250,0,0.0000
2.4293,0,0.0000
2.4336,0,0.0000
2.4379,542,1.7484
2.4421,25,0.0806
2.4464,0,0.0000
2.4508,0,0.0000
2.4551,0,0.0000
2.4593,1004,3.2387
2.4637,0,0.0000
2.4680,0,0.0000
2.4723,0,0.0000
2.4766,0,0.0000
2.4809,705,2.2742
2.4851,0,0.0000
2.4894,0,0.0000
2.4939,0,0.0000
2.4982,473,1.5258
2.5025,0,0.0000
2.5067,0,0.0000
2.5110,0,0.0000
2.5152,0,0.0000
2.5195,1002,3.2323
2.5238,0,0.0000
2.5280,0,0.0000
2.5322,0,0.0000
2.5365,0,0.0000
2.5408,820,2.6452
2.5450,0,0.0000
2.5493,0,0.0000
2.5536,0,0.0000
2.5578,565,1.8226
2.5621,0,0.0000
2.5664,0,0.0000
2.5706,0,0.0000
2.5749,0,0.0000
2.5791,1004,3.2387
2.5834,0,0.0000
2.5876,0,0.0000
2.5919,0,0.0000
2.5961,0,0.0000
2.6004,838,2.7032
2.6046,0,0.0000
2.6090,0,0.0000
2.6133,0,0.0000
2.6176,447,1.4419
2.6219,56,0.1806
2.6262,0,0.0000
2.6304,0,0.0000
2.6348,0,0.0000
2.6390,1001,3.2290
2.6433,0,0.0000
2.6476,0,0.0000
2.6519,0,0.0000
2.6562,0,0.0000
2.6605,293,0.9452
2.6648,0,0.0000
2.6691,0,0.0000
2.6734,0,0.0000
2.6776,777,2.5065
2.6819,168,0.5419
2.6862,0,0.0000
2.6905,0,0.0000
2.6949,0,0.0000
2.6992,1004,3.2387
2.7035,0,0.0000
2.7077,0,0.0000
2.7120,0,0.0000
2.7163,0,0.0000
2.7205,801,2.5839
2.7248,0,0.0000
2.7290,0,0.0000
2.7333,0,0.0000
2.7376,513,1.6548
2.7418,0,0.0000
2.7461,0,0.0000
2.7503,0,0.0000
2.7546,0,0.0000
2.7589,754,2.4323
2.7631,0,0.0000
2.7674,0,0.0000
2.7717,0,0.0000
2.7759,0,0.0000
2.7802,892,2.8774
2.7845,0,0.0000
2.7887,0,0.0000
2.7930,0,0.0000
2.7973,529,1.7065
2.8016,279,0.9000
2.8059,0,0.0000
2.8101,0,0.0000
2.8144,0,0.0000
2.8188,996,3.2129
2.8231,0,0.0000
2.8274,0,0.0000
2.8316,0,0.0000
2.8359,0,0.0000
2.8402,886,2.8581
2.8445,0,0.0000
2.8488,0,0.0000
2.8531,0,0.0000
2.8574,469,1.5129
2.8616,109,0.3516
2.8660,0,0.0000
2.8702,0,0.0000
2.8745,0,0.0000
2.8788,986,3.1806
2.8831,0,0.0000
2.8874,0,0.0000
2.8917,0,0.0000
2.8960,0,0.0000
2.9004,294,0.9484
2.9047,0,0.0000
2.9090,0,0.0000
2.9132,0,0.0000
2.9175,863,2.7839
2.9218,160,0.5161
2.9260,0,0.0000
2.9303,0,0.0000
2.9346,0,0.0000
2.9388,1004,3.2387
2.9431,0,0.0000
2.9474,0,0.0000
2.9516,0,0.0000
2.9559,0,0.0000
2.9602,581,1.8742
2.9646,0,0.0000
2.9690,0,0.0000
2.9734,0,0.0000
2.9777,915,2.9516
2.9820,0,0.0000
2.9863,0,0.0000
2.9906,0,0.0000
2.9949,0,0.0000
2.9992,1004,3.2387
3.0035,0,0.0000
3.0078,0,0.0000
3.0121,0,0.0000
3.0164,130,0.4194
3.0207,572,1.8452
3.0250,0,0.0000
3.0292,0,0.0000
3.0334,0,0.0000
3.0376,501,1.6161
3.0418,0,0.0000
3.0460,0,0.0000
3.0502,0,0.0000
3.0544,0,0.0000
3.0586,1005,3.2419
3.0628,0,0.0000
3.0670,0,0.0000
3.0713,0,0.0000
3.0755,0,0.0000
3.0797,981,3.1645
3.0840,0,0.0000
3.0882,0,0.0000
3.0925,0,0.0000
3.0967,255,0.8226
3.1010,384,1.2387
3.1052,0,0.0000
3.1095,0,0.0000
3.1138,0,0.0000
3.1181,949,3.0613
3.1224,0,0.0000
3.1267,0,0.0000
3.1310,0,0.0000
3.1353,0,0.0000
3.1396,997,3.2161
3.1439,0,0.0000
3.1482,0,0.0000
3.1525,0,0.0000
3.1568,356,1.1484
3.1611,310,1.0000
3.1654,0,0.0000
3.1697,0,0.0000
3.1740,0,0.0000
3.1783,996,3.2129
3.1826,0,0.0000
3.1869,0,0.0000
3.1912,0,0.0000
3.1954,0,0.0000
3.1997,856,2.7613
3.2040,0,0.0000
3.2083,0,0.0000
3.2127,0,0.0000
3.2170,424,1.3677
3.2213,30,0.0968
3.2257,0,0.0000
3.2300,0,0.0000
3.2343,0,0.0000
3.2387,1003,3.2355
3.2430,0,0.0000
3.2473,0,0.0000
3.2517,0,0.0000
3.2560,0,0.0000
3.2603,609,1.9645
3.2646,0,0.0000
3.2689,0,0.0000
3.2733,0,0.0000
3.2776,832,2.6839
3.2819,0,0.0000
3.2863,0,0.0000
3.2906,0,0.0000
3.2949,0,0.0000
3.2993,938,3.0258
3.3037,0,0.0000
3.3080,0,0.0000
3.3123,0,0.0000
3.3166,313,1.0097
3.3209,276,0.8903
3.3252,0,0.0000
3.3295,0,0.0000
3.3338,0,0.0000
3.3382,1003,3.2355
3.3425,0,0.0000
3.3467,0,0.0000
3.3510,0,0.0000
3.3553,0,0.0000
3.3596,873,2.8161
3.3639,0,0.0000
3.3683,0,0.0000
3.3726,0,0.0000
3.3769,433,1.3968
3.3812,27,0.0871
3.3855,0,0.0000
3.3898,0,0.0000
3.3941,0,0.0000
3.3983,1004,3.2387
3.4026,0,0.0000
3.4070,0,0.0000
3.4113,0,0.0000
3.4157,0,0.0000
3.4200,664,2.1419
3.4243,0,0.0000
3.4287,0,0.0000
3.4330,0,0.0000
3.4373,734,2.3677
3.4416,0,0.0000
3.4460,0,0.0000
3.4503,0,0.0000
3.4546,0,0.0000
3.4589,999,3.2226
3.4633,0,0.0000
3.4676,0,0.0000
3.4719,0,0.0000
3.4763,188,0.6065
3.4806,277,0.8935
3.4849,0,0.0000
3.4892,0,0.0000
3.4936,0,0.0000
3.4979,913,2.9452
3.5022,0,0.0000
3.5066,0,0.0000
3.5110,0,0.0000
3.5153,0,0.0000
3.5196,714,2.3032
3.5239,0,0.0000
3.5282,0,0.0000
3.5325,0,0.0000
3.5368,397,1.2806
3.5411,0,0.0000
3.5454,0,0.0000
3.5497,0,0.0000
3.5540,0,0.0000
3.5583,1004,3.2387
3.5626,0,0.0000
3.5669,0,0.0000
3.5712,0,0.0000
3.5755,0,0.0000
3.5798,745,2.4032
3.5841,0,0.0000
3.5883,0,0.0000
3.5926,0,0.0000
3.5969,623,2.0097
3.6012,0,0.0000
3.6055,0,0.0000
3.6098,0,0.0000
3.6141,0,0.0000
3.6184,1004,3.2387
3.6228,0,0.0000
3.6271,0,0.0000
3.6314,0,0.0000
3.6357,29,0.0935
3.6400,585,1.8871
3.6443,0,0.0000
3.6486,0,0.0000
3.6529,0,0.0000
3.6572,761,2.4548
3.6615,0,0.0000
3.6658,0,0.0000
3.6701,0,0.0000
3.6744,0,0.0000
3.6788,1001,3.2290
3.6830,0,0.0000
3.6873,0,0.0000
3.6916,0,0.0000
3.6959,0,0.0000
3.7002,309,0.9968
3.7045,0,0.0000
3.7088,0,0.0000
3.7131,0,0.0000
3.7174,665,2.1452
3.7217,0,0.0000
3.7260,0,0.0000
3.7303,0,0.0000
3.7346,0,0.0000
3.7388,408,1.3161
3.7431,0,0.0000
3.7474,0,0.0000
3.7516,0,0.0000
3.7559,451,1.4548
3.7602,675,2.1774
3.7644,0,0.0000
3.7687,0,0.0000
3.7730,0,0.0000
3.7773,952,3.0710
3.7815,0,0.0000
3.7858,0,0.0000
3.7900,0,0.0000
3.7943,0,0.0000
3.7986,1000,3.2258
3.8029,0,0.0000
3.8071,0,0.0000
3.8114,0,0.0000
3.8157,61,0.1968
3.8199,487,1.5710
3.8242,0,0.0000
3.8285,0,0.0000
3.8328,0,0.0000
3.8370,839,2.7065
3.8413,0,0.0000
3.8456,0,0.0000
3.8499,0,0.0000
3.8541,0,0.0000
3.8584,1000,3.2258
3.8626,0,0.0000
3.8669,0,0.0000
3.8712,0,0.0000
3.8754,67,0.2161
3.8797,697,2.2484
3.8840,0,0.0000
3.8883,0,0.0000
3.8925,0,0.0000
3.8968,721,2.3258
3.9011,0,0.0000
3.9053,0,0.0000
3.9096,0,0.0000
3.9139,0,0.0000
3.9182,638,2.0581
3.9225,0,0.0000
3.9268,0,0.0000
3.9311,0,0.0000
3.9353,10,0.0323
3.9396,765,2.4677
3.9439,0,0.0000
3.9482,0,0.0000
3.9525,0,0.0000
3.9567,860,2.7742
3.9610,0,0.0000
3.9653,0,0.0000
3.9695,0,0.0000
3.9738,0,0.0000
3.9781,1003,3.2355
3.9824,0,0.0000
3.9871,0,0.0000
3.9914,0,0.0000
3.9956,151,0.4871
3.9999,419,1.3516
4.0041,0,0.0000
4.0084,0,0.0000
4.0127,0,0.0000
4.0170,761,2.4548
4.0213,0,0.0000
4.0255,0,0.0000
4.0298,0,0.0000
4.0341,0,0.0000
4.0384,1000,3.2258
4.0426,0,0.0000
4.0469,0,0.0000
4.0511,0,0.0000
4.0554,65,0.2097
4.0597,518,1.6710
4.0640,0,0.0000
4.0682,0,0.0000
4.0725,0,0.0000
4.0767,147,0.4742
4.0810,0,0.0000
4.0853,0,0.0000
4.0895,0,0.0000
4.0938,0,0.0000
4.0981,1004,3.2387
4.1024,0,0.0000
4.1066,0,0.0000
4.1109,0,0.0000
4.1152,49,0.1581
4.1194,664,2.1419
4.1237,0,0.0000
4.1280,0,0.0000
4.1322,0,0.0000
4.1365,747,2.4097
4.1408,0,0.0000
4.1450,0,0.0000
4.1493,0,0.0000
4.1536,0,0.0000
4.1579,1002,3.2323
4.1621,0,0.0000
4.1664,0,0.0000
4.1706,0,0.0000
4.1749,0,0.0000
4.1792,558,1.8000
4.1834,0,0.0000
4.1877,0,0.0000
4.1920,0,0.0000
4.1962,725,2.3387
4.2005,115,0.3710
4.2048,0,0.0000
4.2091,0,0.0000
4.2133,0,0.0000
4.2176,1002,3.2323
4.2219,0,0.0000
4.2262,0,0.0000
4.2304,0,0.0000
4.2347,0,0.0000
4.2390,822,2.6516
4.2432,0,0.0000
4.2475,0,0.0000
4.2518,0,0.0000
4.2560,231,0.7452
4.2603,0,0.0000
4.2645,0,0.0000
4.2688,0,0.0000
4.2731,0,0.0000
4.2773,1004,3.2387
4.2816,0,0.0000
4.2859,0,0.0000
4.2901,0,0.0000
4.2944,0,0.0000
4.2987,857,2.7645
4.3030,0,0.0000
4.3072,0,0.0000
4.3115,0,0.0000
4.3158,392,1.2645
4.3200,207,0.6677
4.3243,0,0.0000
4.3286,0,0.0000
4.3329,0,0.0000
4.3372,526,1.6968
4.3414,0,0.0000
4.3457,0,0.0000
4.3500,0,0.0000
4.3543,0,0.0000
4.3585,998,3.2194
4.3628,0,0.0000
4.3670,0,0.0000
4.3713,0,0.0000
4.3756,119,0.3839
4.3799,138,0.4452
4.3842,0,0.0000
4.3884,0,0.0000
4.3927,0,0.0000
4.3970,621,2.0032
4.4013,0,0.0000
4.4056,0,0.0000
4.4098,0,0.0000
4.4141,0,0.0000
4.4184,1002,3.2323
4.4226,0,0.0000
4.4269,0,0.0000
4.4312,0,0.0000
4.4355,0,0.0000
4.4397,35,0.1129
4.4440,0,0.0000
4.4483,0,0.0000
4.4525,0,0.0000
4.4568,1005,3.2419
4.4611,0,0.0000
4.4654,0,0.0000
4.4696,0,0.0000
4.4739,0,0.0000
4.4782,992,3.2000
4.4825,0,0.0000
4.4868,0,0.0000
4.4910,0,0.0000
4.4953,267,0.8613
4.4996,371,1.1968
4.5039,0,0.0000
4.5082,0,0.0000
4.5124,0,0.0000
4.5168,953,3.0742
4.5210,0,0.0000
4.5253,0,0.0000
4.5296,0,0.0000
4.5338,0,0.0000
4.5382,890,2.8710
4.5424,0,0.0000
4.5467,0,0.0000
4.5510,0,0.0000
4.5552,235,0.7581
4.5595,380,1.2258
4.5638,0,0.0000
4.5681,0,0.0000
4.5723,0,0.0000
4.5766,851,2.7452
4.5809,0,0.0000
4.5852,0,0.0000
4.5894,0,0.0000
4.5937,0,0.0000
4.5980,995,3.2097
4.6023,0,0.0000
4.6065,0,0.0000
4.6108,0,0.0000
4.6150,158,0.5097
4.6193,453,1.4613
4.6236,0,0.0000
4.6279,0,0.0000
4.6321,0,0.0000
4.6364,750,2.4194
4.6407,0,0.0000
4.6449,0,0.0000
4.6492,0,0.0000
4.6535,0,0.0000
4.6578,1002,3.2323
4.6620,0,0.0000
4.6663,0,0.0000
4.6706,0,0.0000
4.6748,64,0.2065
4.6791,519,1.6742
4.6833,0,0.0000
4.6876,0,0.0000
4.6919,0,0.0000
4.6961,703,2.2677
4.7004,0,0.0000
4.7047,0,0.0000
4.7089,0,0.0000
4.7132,0,0.0000
4.7175,1003,3.2355
4.7218,0,0.0000
4.7260,0,0.0000
4.7303,0,0.0000
4.7345,0,0.0000
4.7388,568,1.8323
4.7431,0,0.0000
4.7473,0,0.0000
4.7516,0,0.0000
4.7559,420,1.3548
4.7601,0,0.0000
4.7644,0,0.0000
4.7687,0,0.0000
4.7730,0,0.0000
4.7772,1005,3.2419
4.7815,0,0.0000
4.7858,0,0.0000
4.7900,0,0.0000
4.7943,0,0.0000
4.7986,622,2.0065
4.8029,0,0.0000
4.8071,0,0.0000
4.8114,0,0.0000
4.8157,679,2.1903
4.8199,62,0.2000
4.8242,0,0.0000
4.8285,0,0.0000
4.8328,0,0.0000
4.8371,1003,3.2355
4.8413,0,0.0000
4.8456,0,0.0000
4.8499,0,0.0000
4.8541,0,0.0000
4.8584,759,2.4484
4.8626,0,0.0000
4.8669,0,0.0000
4.8711,0,0.0000
4.8754,378,1.2194
4.8797,24,0.0774
4.8839,0,0.0000
4.8882,0,0.0000
4.8925,0,0.0000
4.8968,533,1.7194
4.9010,0,0.0000
4.9053,0,0.0000
4.9095,0,0.0000
4.9138,0,0.0000
4.9181,994,3.2065
4.9224,0,0.0000
4.9266,0,0.0000
4.9309,0,0.0000
4.9351,301,0.9710
4.9394,236,0.7613
4.9437,0,0.0000
4.9480,0,0.0000
4.9522,0,0.0000
4.9565,1004,3.2387
4.9608,0,0.0000
4.9650,0,0.0000
4.9693,0,0.0000
4.9736,0,0.0000
4.9778,917,2.9581
4.9821,0,0.0000
4.9864,0,0.0000
4.9906,0,0.0000
4.9949,191,0.6161
4.9992,229,0.7387
5.0035,0,0.0000
5.0079,0,0.0000
5.0123,0,0.0000
5.0168,1002,3.2323
5.0214,0,0.0000
5.0259,0,0.0000
5.0306,0,0.0000
5.0350,348,1.1226
5.0393,209,0.6742
5.0436,0,0.0000
5.0479,0,0.0000
5.0521,0,0.0000
5.0564,997,3.2161
5.0607,0,0.0000
5.0650,0,0.0000
5.0692,0,0.0000
5.0735,0,0.0000
5.0778,870,2.8065
5.0821,0,0.0000
5.0863,0,0.0000
5.0906,0,0.0000
5.0949,317,1.0226
5.0992,216,0.6968
5.1034,0,0.0000
5.1077,0,0.0000
5.1120,0,0.0000
5.1162,1001,3.2290
5.1205,0,0.0000
5.1248,0,0.0000
5.1290,0,0.0000
5.1333,0,0.0000
5.1376,915,2.9516
5.1420,0,0.0000
5.1462,0,0.0000
5.1505,0,0.0000
5.1548,295,0.9516
5.1591,206,0.6645
5.1634,0,0.0000
5.1677,0,0.0000
5.1720,0,0.0000
5.1763,1000,3.2258
5.1807,0,0.0000
5.1849,0,0.0000
5.1892,0,0.0000
5.1935,0,0.0000
5.1978,869,2.8032
5.2021,0,0.0000
5.2064,0,0.0000
5.2107,0,0.0000
5.2150,436,1.4065
5.2193,59,0.1903
5.2237,0,0.0000
5.2279,0,0.0000
5.2323,0,0.0000
5.2366,1002,3.2323
5.2409,0,0.0000
5.2452,0,0.0000
5.2495,0,0.0000
5.2538,0,0.0000
5.2581,702,2.2645
5.2625,0,0.0000
5.2668,0,0.0000
5.2711,0,0.0000
5.2754,649,2.0935
5.2797,0,0.0000
5.2840,0,0.0000
5.2883,0,0.0000
5.2926,0,0.0000
5.2969,1001,3.2290
5.3012,0,0.0000
5.3055,0,0.0000
5.3098,0,0.0000
5.3141,65,0.2097
5.3184,570,1.8387
5.3227,0,0.0000
5.3270,0,0.0000
5.3313,0,0.0000
5.3356,435,1.4032
5.3399,0,0.0000
5.3443,0,0.0000
5.3486,0,0.0000
5.3529,0,0.0000
5.3572,1003,3.2355
5.3615,0,0.0000
5.3658,0,0.0000
5.3701,0,0.0000
5.3744,229,0.7387
5.3787,439,1.4161
5.3830,0,0.0000
5.3873,0,0.0000
5.3916,0,0.0000
5.3959,1001,3.2290
5.4002,0,0.0000
5.4045,0,0.0000
5.4088,0,0.0000
5.4131,0,0.0000
5.4174,920,2.9677
5.4217,0,0.0000
5.4260,0,0.0000
5.4303,0,0.0000
5.4347,309,0.9968
5.4390,150,0.4839
5.4433,0,0.0000
5.4476,0,0.0000
5.4519,0,0.0000
5.4562,1003,3.2355
5.4605,0,0.0000
5.4648,0,0.0000
5.4691,0,0.0000
5.4734,0,0.0000
5.4777,793,2.5581
5.4820,0,0.0000
5.4863,0,0.0000
5.4906,0,0.0000
5.4949,491,1.5839
5.4992,0,0.0000
5.5035,0,0.0000
5.5078,0,0.0000
5.5121,0,0.0000
5.5165,1003,3.2355
5.5208,0,0.0000
5.5251,0,0.0000
5.5294,0,0.0000
5.5337,0,0.0000
5.5380,639,2.0613
5.5423,0,0.0000
5.5466,0,0.0000
5.5509,0,0.0000
5.5552,724,2.3355
5.5595,0,0.0000
5.5638,0,0.0000
5.5681,0,0.0000
5.5724,0,0.0000
5.5768,933,3.0097
5.5811,0,0.0000
5.5853,0,0.0000
5.5897,0,0.0000
5.5940,0,0.0000
5.5983,208,0.6710
5.6026,0,0.0000
5.6069,0,0.0000
5.6112,0,0.0000
5.6155,1005,3.2419
5.6198,0,0.0000
5.6241,0,0.0000
5.6284,0,0.0000
5.6327,0,0.0000
5.6370,1003,3.2355
5.6413,0,0.0000
5.6456,0,0.0000
5.6499,0,0.0000
5.6542,188,0.6065
5.6585,386,1.2452
5.6628,0,0.0000
5.6671,0,0.0000
5.6714,0,0.0000
5.6757,905,2.9194
5.6800,0,0.0000
5.6843,0,0.0000
5.6886,0,0.0000
5.6929,0,0.0000
5.6972,849,2.7387
5.7015,0,0.0000
5.7058,0,0.0000
5.7101,0,0.0000
5.7144,304,0.9806
5.7187,33,0.1065
5.7230,0,0.0000
5.7273,0,0.0000
5.7316,0,0.0000
5.7359,961,3.1000
5.7402,0,0.0000
5.7445,0,0.0000
5.7488,0,0.0000
5.7531,0,0.0000
5.7574,714,2.3032
5.7617,0,0.0000
5.7660,0,0.0000
5.7703,0,0.0000
5.7746,488,1.5742
5.7789,0,0.0000
5.7832,0,0.0000
5.7875,0,0.0000
5.7918,0,0.0000
5.7961,1004,3.2387
5.8004,0,0.0000
5.8047,0,0.0000
5.8090,0,0.0000
5.8133,0,0.0000
5.8176,679,2.1903
5.8219,0,0.0000
5.8262,0,0.0000
5.8306,0,0.0000
5.8349,739,2.3839
5.8392,0,0.0000
5.8435,0,0.0000
5.8478,0,0.0000
5.8521,0,0.0000
5.8564,576,1.8581
5.8607,0,0.0000
5.8650,0,0.0000
5.8693,0,0.0000
5.8736,63,0.2032
5.8779,623,2.0097
5.8822,0,0.0000
5.8865,0,0.0000
5.8908,0,0.0000
5.8951,995,3.2097
5.8994,0,0.0000
5.9038,0,0.0000
5.9081,0,0.0000
5.9124,0,0.0000
5.9167,997,3.2161
5.9210,0,0.0000
5.9253,0,0.0000
5.9296,0,0.0000
5.9339,185,0.5968
5.9382,260,0.8387
5.9425,0,0.0000
5.9468,0,0.0000
5.9511,0,0.0000
5.9554,963,3.1065
5.9597,0,0.0000
5.9640,0,0.0000
5.9683,0,0.0000
5.9726,0,0.0000
5.9769,322,1.0387
5.9813,0,0.0000
5.9857,0,0.0000
5.9903,0,0.0000
5.9948,943,3.0419
5.9991,0,0.0000
6.0034,0,0.0000
6.0077,0,0.0000
6.0120,0,0.0000
6.0163,1001,3.2290
6.0206,0,0.0000
6.0249,0,0.0000
6.0292,0,0.0000
6.0335,76,0.2452
6.0378,503,1.6226
6.0421,0,0.0000
6.0464,0,0.0000
6.0507,0,0.0000
6.0550,896,2.8903
6.0593,0,0.0000
6.0637,0,0.0000
6.0679,0,0.0000
6.0722,0,0.0000
6.0765,998,3.2194
6.0808,0,0.0000
6.0851,0,0.0000
6.0894,0,0.0000
6.0937,185,0.5968
6.0980,356,1.1484
6.1023,0,0.0000
6.1066,0,0.0000
6.1109,0,0.0000
6.1152,989,3.1903
6.1195,0,0.0000
6.1238,0,0.0000
6.1282,0,0.0000
6.1324,0,0.0000
6.1368,889,2.8677
6.1411,0,0.0000
6.1454,0,0.0000
6.1498,0,0.0000
6.1541,439,1.4161
6.1583,204,0.6581
6.1627,0,0.0000
6.1670,0,0.0000
6.1712,0,0.0000
6.1755,1004,3.2387
6.1798,0,0.0000
6.1841,0,0.0000
6.1884,0,0.0000
6.1927,0,0.0000
6.1970,803,2.5903
6.2013,0,0.0000
6.2057,0,0.0000
6.2100,0,0.0000
6.2142,477,1.5387
6.2185,0,0.0000
6.2228,0,0.0000
6.2271,0,0.0000
6.2314,0,0.0000
6.2357,960,3.0968
6.2400,0,0.0000
6.2443,0,0.0000
6.2487,0,0.0000
6.2530,0,0.0000
6.2573,54,0.1742
6.2616,0,0.0000
6.2659,0,0.0000
6.2702,0,0.0000
6.2745,848,2.7355
6.2788,0,0.0000
6.2831,0,0.0000
6.2874,0,0.0000
6.2917,0,0.0000
6.2960,1003,3.2355
6.3003,0,0.0000
6.3046,0,0.0000
6.3089,0,0.0000
6.3132,155,0.5000
6.3175,519,1.6742
6.3218,0,0.0000
6.3261,0,0.0000
6.3304,0,0.0000
6.3348,924,2.9806
6.3390,0,0.0000
6.3433,0,0.0000
6.3477,0,0.0000
6.3520,0,0.0000
6.3563,973,3.1387
6.3606,0,0.0000
6.3649,0,0.0000
6.3692,0,0.0000
6.3735,54,0.1742
6.3778,260,0.8387
6.3821,0,0.0000
6.3864,0,0.0000
6.3908,0,0.0000
6.3951,1006,3.2452
6.3994,0,0.0000
6.4037,0,0.0000
6.4080,0,0.0000
6.4123,0,0.0000
6.4166,904,2.9161
6.4209,0,0.0000
6.4252,0,0.0000
6.4295,0,0.0000
6.4338,442,1.4258
6.4381,94,0.3032
6.4424,0,0.0000
6.4467,0,0.0000
6.4510,0,0.0000
6.4551,1001,3.2290
6.4593,0,0.0000
6.4635,0,0.0000
6.4678,0,0.0000
6.4720,0,0.0000
6.4762,994,3.2065
6.4804,0,0.0000
6.4845,0,0.0000
6.4887,0,0.0000
6.4929,18,0.0581
6.4971,619,1.9968
6.5013,0,0.0000
6.5055,0,0.0000
6.5097,0,0.0000
6.5139,352,1.1355
6.5181,0,0.0000
6.5223,0,0.0000
6.5265,0,0.0000
6.5307,0,0.0000
6.5349,1003,3.2355
6.5391,0,0.0000
6.5432,0,0.0000
6.5474,0,0.0000
6.5516,0,0.0000
6.5558,1001,3.2290
6.5600,0,0.0000
6.5642,0,0.0000
6.5684,0,0.0000
6.5726,0,0.0000
6.5768,808,2.6065
6.5809,0,0.0000
6.5851,0,0.0000
6.5893,0,0.0000
6.5935,46,0.1484
6.5977,25,0.0806
6.6019,0,0.0000
6.6060,0,0.0000
6.6102,0,0.0000
6.6144,384,1.2387
6.6186,0,0.0000
6.6228,0,0.0000
6.6269,0,0.0000
6.6311,0,0.0000
6.6353,1004,3.2387
6.6395,0,0.0000
6.6437,0,0.0000
6.6479,0,0.0000
6.6520,0,0.0000
6.6562,1000,3.2258
6.6604,0,0.0000
6.6646,0,0.0000
6.6688,0,0.0000
6.6730,0,0.0000
6.6771,93,0.3000
6.6813,0,0.0000
6.6855,0,0.0000
6.6897,0,0.0000
6.6939,885,2.8548
6.6981,251,0.8097
6.7023,0,0.0000
6.7064,0,0.0000
6.7106,0,0.0000
6.7148,1004,3.2387
6.7190,0,0.0000
6.7232,0,0.0000
6.7273,0,0.0000
6.7315,0,0.0000
6.7357,984,3.1742
6.7399,0,0.0000
6.7441,0,0.0000
6.7483,0,0.0000
6.7524,0,0.0000
6.7566,723,2.3323
6.7608,0,0.0000
6.7650,0,0.0000
6.7692,0,0.0000
6.7734,337,1.0871
6.7776,233,0.7516
6.7817,0,0.0000
6.7859,0,0.0000
6.7901,0,0.0000
6.7943,800,2.5806
6.7985,0,0.0000
6.8027,0,0.0000
6.8068,0,0.0000
6.8110,0,0.0000
6.8152,973,3.1387
6.8194,0,0.0000
6.8236,0,0.0000
6.8277,0,0.0000
6.8319,0,0.0000
6.8361,975,3.1452
6.8403,0,0.0000
6.8445,0,0.0000
6.8487,0,0.0000
6.8529,167,0.5387
6.8570,528,1.7032
6.8612,0,0.0000
6.8654,0,0.0000
6.8696,0,0.0000
6.8738,653,2.1065
6.8780,1,0.0032
6.8821,0,0.0000
6.8863,0,0.0000
6.8905,0,0.0000
6.8947,930,3.0000
6.8989,0,0.0000
6.9031,0,0.0000
6.9072,0,0.0000
6.9114,0,0.0000
6.9156,1001,3.2290
6.9198,0,0.0000
6.9240,0,0.0000
6.9282,0,0.0000
6.9323,0,0.0000
6.9365,838,2.7032
6.9407,0,0.0000
6.9449,0,0.0000
6.9491,0,0.0000
6.9532,277,0.8935
6.9574,215,0.6935
6.9616,0,0.0000
6.9658,0,0.0000
6.9700,0,0.0000
6.9741,755,2.4355
6.9783,0,0.0000
6.9825,0,0.0000
6.9867,0,0.0000
6.9909,0,0.0000
6.9950,1003,3.2355
6.9992,0,0.0000
7.0034,0,0.0000
7.0076,0,0.0000
7.0118,0,0.0000
7.0160,478,1.5419
7.0202,0,0.0000
7.0243,0,0.0000
7.0285,0,0.0000
7.0327,15,0.0484
7.0369,554,1.7871
7.0411,0,0.0000
7.0452,0,0.0000
7.0494,0,0.0000
7.0536,808,2.6065
7.0578,101,0.3258
7.0620,0,0.0000
7.0662,0,0.0000
7.0703,0,0.0000
7.0745,1002,3.2323
7.0787,0,0.0000
7.0829,0,0.0000
7.0871,0,0.0000
7.0912,0,0.0000
7.0954,864,2.7871
7.0996,0,0.0000
7.1038,0,0.0000
7.1080,0,0.0000
7.1122,0,0.0000
7.1163,304,0.9806
7.1205,0,0.0000
7.1247,0,0.0000
7.1289,0,0.0000
7.1331,642,2.0710
7.1372,530,1.7097
7.1414,0,0.0000
7.1456,0,0.0000
7.1499,0,0.0000
7.1541,1003,3.2355
7.1584,0,0.0000
7.1627,0,0.0000
7.1670,0,0.0000
7.1713,0,0.0000
7.1756,998,3.2194
7.1799,0,0.0000
7.1842,0,0.0000
7.1885,0,0.0000
7.1928,0,0.0000
7.1971,0,0.0000
7.2014,0,0.0000
7.2058,0,0.0000
7.2101,0,0.0000
7.2143,426,1.3742
7.2186,0,0.0000
7.2230,0,0.0000
7.2272,0,0.0000
7.2315,0,0.0000
7.2358,1000,3.2258
7.2401,0,0.0000
7.2444,0,0.0000
7.2488,0,0.0000
7.2532,156,0.5032
7.2575,0,0.0000
7.2618,0,0.0000
7.2661,0,0.0000
7.2704,0,0.0000
7.2747,1005,3.2419
7.2790,0,0.0000
7.2833,0,0.0000
7.2876,0,0.0000
7.2919,0,0.0000
7.2962,721,2.3258
7.3005,0,0.0000
7.3049,0,0.0000
7.3092,0,0.0000
7.3134,160,0.5161
7.3178,0,0.0000
7.3221,0,0.0000
7.3264,0,0.0000
7.3311,0,0.0000
7.3354,1004,3.2387
7.3397,0,0.0000
7.3440,0,0.0000
7.3483,0,0.0000
7.3526,127,0.4097
7.3570,125,0.4032
7.3613,0,0.0000
7.3656,0,0.0000
7.3699,0,0.0000
7.3742,1005,3.2419
7.3785,0,0.0000
7.3828,0,0.0000
7.3871,0,0.0000
7.3914,0,0.0000
7.3957,870,2.8065
7.4000,0,0.0000
7.4044,0,0.0000
7.4088,0,0.0000
7.4130,386,1.2452
7.4173,0,0.0000
7.4216,0,0.0000
7.4259,0,0.0000
7.4302,0,0.0000
7.4345,1006,3.2452
7.4388,0,0.0000
7.4431,0,0.0000
7.4475,0,0.0000
7.4518,0,0.0000
7.4561,757,2.4419
7.4604,0,0.0000
7.4648,0,0.0000
7.4691,0,0.0000
7.4734,709,2.2871
7.4777,0,0.0000
7.4820,0,0.0000
7.4862,0,0.0000
7.4906,0,0.0000
7.4949,1002,3.2323
7.4992,0,0.0000
7.5035,0,0.0000
7.5078,0,0.0000
7.5121,98,0.3161
7.5164,510,1.6452
7.5207,0,0.0000
7.5250,0,0.0000
7.5294,0,0.0000
7.5337,875,2.8226
7.5380,0,0.0000
7.5422,0,0.0000
7.5465,0,0.0000
7.5509,0,0.0000
7.5552,908,2.9290
7.5595,0,0.0000
7.5639,0,0.0000
7.5682,0,0.0000
7.5725,244,0.7871
7.5768,274,0.8839
7.5810,0,0.0000
7.5852,0,0.0000
7.5895,0,0.0000
7.5938,992,3.2000
7.5981,0,0.0000
7.6023,0,0.0000
7.6066,0,0.0000
7.6110,0,0.0000
7.6152,967,3.1194
7.6195,0,0.0000
7.6237,0,0.0000
7.6280,0,0.0000
7.6323,240,0.7742
7.6366,382,1.2323
7.6409,0,0.0000
7.6451,0,0.0000
7.6494,0,0.0000
7.6536,966,3.1161
7.6579,0,0.0000
7.6622,0,0.0000
7.6664,0,0.0000
7.6707,0,0.0000
7.6750,993,3.2032
7.6792,0,0.0000
7.6835,0,0.0000
7.6877,0,0.0000
7.6920,136,0.4387
7.6963,459,1.4806
7.7006,0,0.0000
7.7049,0,0.0000
7.7092,0,0.0000
7.7134,829,2.6742
7.7177,0,0.0000
7.7219,0,0.0000
7.7262,0,0.0000
7.7304,0,0.0000
7.7347,1003,3.2355
7.7390,0,0.0000
7.7432,0,0.0000
7.7475,0,0.0000
7.7517,0,0.0000
7.7561,576,1.8581
7.7604,0,0.0000
7.7647,0,0.0000
7.7690,0,0.0000
7.7732,788,2.5419
7.7775,0,0.0000
7.7818,0,0.0000
7.7860,0,0.0000
7.7903,0,0.0000
7.7946,1000,3.2258
7.7988,0,0.0000
7.8031,0,0.0000
7.8074,0,0.0000
7.8116,0,0.0000
7.8159,605,1.9516
7.8202,0,0.0000
7.8245,0,0.0000
7.8287,0,0.0000
7.8330,295,0.9516
7.8373,0,0.0000
7.8415,0,0.0000
7.8458,0,0.0000
7.8500,0,0.0000
7.8543,1006,3.2452
7.8586,0,0.0000
7.8629,0,0.0000
7.8672,0,0.0000
7.8714,0,0.0000
7.8758,419,1.3516
7.8801,0,0.0000
7.8843,0,0.0000
7.8886,0,0.0000
7.8929,873,2.8161
7.8971,71,0.2290
7.9014,0,0.0000
7.9056,0,0.0000
7.9099,0,0.0000
7.9142,1002,3.2323
7.9185,0,0.0000
7.9227,0,0.0000
7.9270,0,0.0000
7.9313,0,0.0000
7.9355,729,2.3516
7.9398,0,0.0000
7.9441,0,0.0000
7.9483,0,0.0000
7.9527,578,1.8645
7.9569,0,0.0000
7.9612,0,0.0000
7.9654,0,0.0000
7.9698,0,0.0000
7.9740,861,2.7774
7.9788,0,0.0000
7.9835,0,0.0000
7.9878,0,0.0000
7.9921,337,1.0871
7.9964,342,1.1032
8.0007,0,0.0000
8.0050,0,0.0000
8.0093,0,0.0000
8.0136,990,3.1935
8.0179,0,0.0000
8.0221,0,0.0000
8.0264,0,0.0000
8.0306,0,0.0000
8.0349,884,2.8516
8.0392,0,0.0000
8.0434,0,0.0000
8.0477,0,0.0000
8.0520,248,0.8000
8.0563,346,1.1161
8.0606,0,0.0000
8.0648,0,0.0000
8.0691,0,0.0000
8.0734,984,3.1742
8.0776,0,0.0000
8.0819,0,0.0000
8.0862,0,0.0000
8.0904,0,0.0000
8.0947,973,3.1387
8.0989,0,0.0000
8.1032,0,0.0000
8.1075,0,0.0000
8.1117,87,0.2806
8.1160,384,1.2387
8.1203,0,0.0000
8.1245,0,0.0000
8.1288,0,0.0000
8.1330,770,2.4839
8.1372,0,0.0000
8.1415,0,0.0000
8.1458,0,0.0000
8.1500,0,0.0000
8.1543,1003,3.2355
8.1586,0,0.0000
8.1629,0,0.0000
8.1671,0,0.0000
8.1714,51,0.1645
8.1757,548,1.7677
8.1800,0,0.0000
8.1843,0,0.0000
8.1885,0,0.0000
8.1928,691,2.2290
8.1971,0,0.0000
8.2013,0,0.0000
8.2056,0,0.0000
8.2099,0,0.0000
8.2142,1001,3.2290
8.2185,0,0.0000
8.2228,0,0.0000
8.2270,0,0.0000
8.2312,0,0.0000
8.2355,59,0.1903
8.2397,0,0.0000
8.2440,0,0.0000
8.2486,0,0.0000
8.2533,1004,3.2387
8.2576,0,0.0000
8.2619,0,0.0000
8.2663,0,0.0000
8.2706,0,0.0000
8.2748,948,3.0581
8.2792,0,0.0000
8.2835,0,0.0000
8.2878,0,0.0000
8.2920,528,1.7032
8.2963,327,1.0548
8.3006,0,0.0000
8.3049,0,0.0000
8.3091,0,0.0000
8.3134,1004,3.2387
8.3177,0,0.0000
8.3219,0,0.0000
8.3262,0,0.0000
8.3305,0,0.0000
8.3347,915,2.9516
8.3390,0,0.0000
8.3432,0,0.0000
8.3475,0,0.0000
8.3518,301,0.9710
8.3560,382,1.2323
8.3603,0,0.0000
8.3646,0,0.0000
8.3689,0,0.0000
8.3731,1002,3.2323
8.3775,0,0.0000
8.3821,0,0.0000
8.3864,0,0.0000
8.3907,0,0.0000
8.3950,775,2.5000
8.3992,0,0.0000
8.4035,0,0.0000
8.4078,0,0.0000
8.4121,497,1.6032
8.4163,84,0.2710
8.4206,0,0.0000
8.4249,0,0.0000
8.4292,0,0.0000
8.4334,1002,3.2323
8.4377,0,0.0000
8.4420,0,0.0000
8.4463,0,0.0000
8.4506,0,0.0000
8.4549,801,2.5839
8.4591,0,0.0000
8.4634,0,0.0000
8.4677,0,0.0000
8.4725,672,2.1677
8.4768,0,0.0000
8.4815,0,0.0000
8.4858,0,0.0000
8.4901,0,0.0000
8.4944,996,3.2129
8.4986,0,0.0000
8.5029,0,0.0000
8.5072,0,0.0000
8.5115,204,0.6581
8.5157,406,1.3097
8.5200,0,0.0000
8.5243,0,0.0000
8.5286,0,0.0000
8.5329,961,3.1000
8.5372,0,0.0000
8.5414,0,0.0000
8.5457,0,0.0000
8.5500,0,0.0000
8.5543,983,3.1710
8.5586,0,0.0000
8.5629,0,0.0000
8.5672,0,0.0000
8.5714,208,0.6710
8.5757,340,1.0968
8.5800,0,0.0000
8.5843,0,0.0000
8.5886,0,0.0000
8.5929,1000,3.2258
8.5972,0,0.0000
8.6014,0,0.0000
8.6057,0,0.0000
8.6100,0,0.0000
8.6143,515,1.6613
8.6186,0,0.0000
8.6228,0,0.0000
8.6271,0,0.0000
8.6314,0,0.0000
8.6356,129,0.4161
8.6399,0,0.0000
8.6442,0,0.0000
8.6484,0,0.0000
8.6527,1003,3.2355
8.6570,0,0.0000
8.6612,0,0.0000
8.6655,0,0.0000
8.6698,0,0.0000
8.6741,1003,3.2355
8.6783,0,0.0000
8.6826,0,0.0000
8.6869,0,0.0000
8.6911,156,0.5032
8.6954,493,1.5903
8.6997,0,0.0000
8.7040,0,0.0000
8.7083,0,0.0000
8.7126,880,2.8387
8.7168,0,0.0000
8.7211,0,0.0000
8.7254,0,0.0000
8.7296,0,0.0000
8.7339,970,3.1290
8.7382,0,0.0000
8.7424,0,0.0000
8.7467,0,0.0000
8.7509,0,0.0000
8.7552,36,0.1161
8.7595,0,0.0000
8.7637,0,0.0000
8.7680,0,0.0000
8.7722,40,0.1290
8.7765,51,0.1645
8.7808,0,0.0000
8.7850,0,0.0000
8.7896,0,0.0000
8.7938,819,2.6419
8.7981,0,0.0000
8.8024,0,0.0000
8.8066,0,0.0000
8.8109,386,1.2452
8.8152,784,2.5290
8.8195,0,0.0000
8.8237,0,0.0000
8.8279,0,0.0000
8.8322,777,2.5065
8.8365,0,0.0000
8.8408,0,0.0000
8.8450,0,0.0000
8.8493,0,0.0000
8.8535,1002,3.2323
8.8578,0,0.0000
8.8621,0,0.0000
8.8664,0,0.0000
8.8706,4,0.0129
8.8754,389,1.2548
8.8796,0,0.0000
8.8839,0,0.0000
8.8882,0,0.0000
8.8925,963,3.1065
8.8968,0,0.0000
8.9010,0,0.0000
8.9052,0,0.0000
8.9095,0,0.0000
8.9138,814,2.6258
8.9181,0,0.0000
8.9224,0,0.0000
8.9267,0,0.0000
8.9309,0,0.0000
8.9351,51,0.1645
8.9394,0,0.0000
8.9437,0,0.0000
8.9479,0,0.0000
8.9522,778,2.5097
8.9569,0,0.0000
8.9612,0,0.0000
8.9655,0,0.0000
8.9698,0,0.0000
8.9740,1001,3.2290
8.9783,0,0.0000
8.9826,0,0.0000
8.9868,0,0.0000
8.9910,98,0.3161
8.9953,308,0.9935
8.9996,0,0.0000
9.0038,0,0.0000
9.0081,0,0.0000
9.0124,645,2.0806
9.0167,0,0.0000
9.0210,0,0.0000
9.0252,0,0.0000
9.0295,0,0.0000
9.0337,1005,3.2419
9.0380,0,0.0000
9.0423,0,0.0000
9.0466,0,0.0000
9.0508,209,0.6742
9.0551,475,1.5323
9.0594,0,0.0000
9.0637,0,0.0000
9.0679,0,0.0000
9.0722,890,2.8710
9.0765,0,0.0000
9.0807,0,0.0000
9.0850,0,0.0000
9.0893,0,0.0000
9.0935,1001,3.2290
9.0978,0,0.0000
9.1021,0,0.0000
9.1064,0,0.0000
9.1108,0,0.0000
9.1151,338,1.0903
9.1193,0,0.0000
9.1236,0,0.0000
9.1278,0,0.0000
9.1321,1001,3.2290
9.1364,0,0.0000
9.1407,0,0.0000
9.1450,0,0.0000
9.1492,0,0.0000
9.1535,1002,3.2323
9.1577,0,0.0000
9.1620,0,0.0000
9.1663,0,0.0000
9.1706,119,0.3839
9.1748,561,1.8097
9.1791,0,0.0000
9.1834,0,0.0000
9.1877,0,0.0000
9.1919,833,2.6871
9.1962,0,0.0000
9.2005,0,0.0000
9.2048,0,0.0000
9.2091,0,0.0000
9.2133,992,3.2000
9.2179,0,0.0000
9.2222,0,0.0000
9.2265,0,0.0000
9.2307,233,0.7516
9.2350,434,1.4000
9.2392,0,0.0000
9.2435,0,0.0000
9.2478,0,0.0000
9.2520,881,2.8419
9.2562,0,0.0000
9.2605,0,0.0000
9.2648,0,0.0000
9.2691,0,0.0000
9.2733,1003,3.2355
9.2776,0,0.0000
9.2818,0,0.0000
9.2861,0,0.0000
9.2904,101,0.3258
9.2947,657,2.1194
9.2989,0,0.0000
9.3037,0,0.0000
9.3080,0,0.0000
9.3122,984,3.1742
9.3165,0,0.0000
9.3208,0,0.0000
9.3251,0,0.0000
9.3293,0,0.0000
9.3335,935,3.0161
9.3378,0,0.0000
9.3421,0,0.0000
9.3463,0,0.0000
9.3506,118,0.3806
9.3549,532,1.7161
9.3591,0,0.0000
9.3634,0,0.0000
9.3677,0,0.0000
9.3720,602,1.9419
9.3762,0,0.0000
9.3804,0,0.0000
9.3852,0,0.0000
9.3895,0,0.0000
9.3937,1001,3.2290
9.3980,0,0.0000
9.4022,0,0.0000
9.4065,0,0.0000
9.4108,396,1.2774
9.4150,351,1.1323
9.4193,0,0.0000
9.4236,0,0.0000
9.4279,0,0.0000
9.4321,997,3.2161
9.4364,0,0.0000
9.4406,0,0.0000
9.4449,0,0.0000
9.4492,0,0.0000
9.4535,993,3.2032
9.4577,0,0.0000
9.4619,0,0.0000
9.4662,0,0.0000
9.4705,65,0.2097
9.4748,343,1.1065
9.4790,0,0.0000
9.4833,0,0.0000
9.4876,0,0.0000
9.4918,924,2.9806
9.4961,0,0.0000
9.5003,0,0.0000
9.5046,0,0.0000
9.5089,0,0.0000
9.5133,1000,3.2258
9.5176,0,0.0000
9.5218,0,0.0000
9.5261,0,0.0000
9.5304,178,0.5742
9.5346,470,1.5161
9.5389,0,0.0000
9.5431,0,0.0000
9.5474,0,0.0000
9.5517,781,2.5194
9.5559,0,0.0000
9.5602,0,0.0000
9.5647,0,0.0000
9.5690,0,0.0000
9.5733,405,1.3065
9.5776,0,0.0000
9.5818,0,0.0000
9.5861,0,0.0000
9.5904,0,0.0000
9.5946,290,0.9355
9.5988,0,0.0000
9.6031,0,0.0000
9.6074,0,0.0000
9.6117,1000,3.2258
9.6159,0,0.0000
9.6202,0,0.0000
9.6245,0,0.0000
9.6288,0,0.0000
9.6331,1002,3.2323
9.6373,0,0.0000
9.6415,0,0.0000
9.6458,0,0.0000
9.6505,0,0.0000
9.6548,4,0.0129
9.6590,0,0.0000
9.6633,0,0.0000
9.6675,0,0.0000
9.6718,1005,3.2419
9.6761,0,0.0000
9.6804,0,0.0000
9.6846,0,0.0000
9.6889,0,0.0000
9.6932,971,3.1323
9.6974,0,0.0000
9.7017,0,0.0000
9.7060,0,0.0000
9.7102,263,0.8484
9.7146,373,1.2032
9.7189,0,0.0000
9.7231,0,0.0000
9.7275,0,0.0000
9.7318,961,3.1000
9.7361,0,0.0000
9.7403,0,0.0000
9.7446,0,0.0000
9.7488,0,0.0000
9.7531,987,3.1839
9.7574,0,0.0000
9.7617,0,0.0000
9.7660,0,0.0000
9.7703,120,0.3871
9.7745,238,0.7677
9.7788,0,0.0000
9.7831,0,0.0000
9.7873,0,0.0000
9.7916,1000,3.2258
9.7959,0,0.0000
9.8002,0,0.0000
9.8044,0,0.0000
9.8088,0,0.0000
9.8131,901,2.9065
9.8174,0,0.0000
9.8217,0,0.0000
9.8259,0,0.0000
9.8302,8,0.0258
9.8345,158,0.5097
9.8387,0,0.0000
9.8430,0,0.0000
9.8472,0,0.0000
9.8515,1001,3.2290
9.8557,0,0.0000
9.8600,0,0.0000
9.8643,0,0.0000
9.8685,0,0.0000
9.8728,1001,3.2290
9.8771,0,0.0000
9.8813,0,0.0000
9.8856,0,0.0000
9.8898,157,0.5065
9.8941,615,1.9839
9.8984,0,0.0000
9.9026,0,0.0000
9.9069,0,0.0000
9.9111,787,2.5387
9.9155,0,0.0000
9.9198,0,0.0000
9.9241,0,0.0000
9.9283,0,0.0000
9.9326,1003,3.2355
9.9369,0,0.0000
9.9412,0,0.0000
9.9454,0,0.0000
9.9497,92,0.2968
9.9539,622,2.0065
9.9582,0,0.0000
9.9625,0,0.0000
9.9668,0,0.0000
9.9710,766,2.4710
9.9753,0,0.0000
9.9796,0,0.0000
9.9842,0,0.0000
9.9885,0,0.0000
9.9929,976,3.1484
9.9972,0,0.0000
