time_s,adc_raw,voltage
0.0000,1005,3.2419
0.0152,240,0.7742
0.0195,1006,3.2452
0.0239,1006,3.2452
0.0284,0,0.0000
0.0330,0,0.0000
0.0375,1006,3.2452
0.0422,1007,3.2484
0.0467,51,0.1645
0.0513,0,0.0000
0.0558,567,1.8290
0.0604,1007,3.2484
0.0650,998,3.2194
0.0695,0,0.0000
0.0741,0,0.0000
0.0787,1006,3.2452
0.0833,1006,3.2452
0.0880,0,0.0000
0.0927,0,0.0000
0.0975,1006,3.2452
0.1021,1006,3.2452
0.1064,344,1.1097
0.1107,0,0.0000
0.1150,92,0.2968
0.1193,1006,3.2452
0.1236,1005,3.2419
0.1279,0,0.0000
0.1322,0,0.0000
0.1364,915,2.9516
0.1407,1007,3.2484
0.1450,1002,3.2323
0.1493,0,0.0000
0.1536,0,0.0000
0.1580,1007,3.2484
0.1625,1005,3.2419
0.1669,107,0.3452
0.1711,0,0.0000
0.1754,260,0.8387
0.1797,1007,3.2484
0.1840,1005,3.2419
0.1883,0,0.0000
0.1926,0,0.0000
0.1968,1004,3.2387
0.2011,1005,3.2419
0.2054,921,2.9710
0.2097,0,0.0000
0.2139,0,0.0000
0.2182,1006,3.2452
0.2226,1005,3.2419
0.2269,96,0.3097
0.2313,0,0.0000
0.2356,333,1.0742
0.2400,1005,3.2419
0.2444,1005,3.2419
0.2487,0,0.0000
0.2531,0,0.0000
0.2574,1006,3.2452
0.2617,1006,3.2452
0.2661,635,2.0484
0.2704,0,0.0000
0.2747,0,0.0000
0.2791,1007,3.2484
0.2834,1007,3.2484
0.2878,0,0.0000
0.2921,0,0.0000
0.2965,792,2.5548
0.3008,1006,3.2452
0.3051,1001,3.2290
0.3095,0,0.0000
0.3138,0,0.0000
0.3181,1006,3.2452
0.3225,1006,3.2452
0.3268,220,0.7097
0.3312,0,0.0000
0.3355,309,0.9968
0.3399,1005,3.2419
0.3442,1006,3.2452
0.3486,0,0.0000
0.3529,0,0.0000
0.3572,1006,3.2452
0.3615,1006,3.2452
0.3659,808,2.6065
0.3702,0,0.0000
0.3746,0,0.0000
0.3789,1006,3.2452
0.3832,1005,3.2419
0.3876,0,0.0000
0.3920,0,0.0000
0.3963,696,2.2452
0.4007,1006,3.2452
0.4050,1003,3.2355
0.4095,0,0.0000
0.4138,0,0.0000
0.4182,1006,3.2452
0.4224,1005,3.2419
0.4267,307,0.9903
0.4311,0,0.0000
0.4354,123,0.3968
0.4397,1006,3.2452
0.4439,993,3.2032
0.4483,0,0.0000
0.4526,0,0.0000
0.4569,985,3.1774
0.4614,1007,3.2484
0.4658,842,2.7161
0.4701,0,0.0000
0.4744,0,0.0000
0.4787,1005,3.2419
0.4831,1004,3.2387
0.4873,0,0.0000
0.4916,0,0.0000
0.4959,382,1.2323
0.5003,1007,3.2484
0.5045,1004,3.2387
0.5088,0,0.0000
0.5131,0,0.0000
0.5174,1005,3.2419
0.5218,1005,3.2419
0.5261,750,2.4194
0.5304,0,0.0000
0.5348,0,0.0000
0.5391,1007,3.2484
0.5435,1005,3.2419
0.5478,0,0.0000
0.5521,0,0.0000
0.5565,699,2.2548
0.5608,1007,3.2484
0.5651,1004,3.2387
0.5695,0,0.0000
0.5738,0,0.0000
0.5781,1006,3.2452
0.5825,1006,3.2452
0.5868,397,1.2806
0.5911,0,0.0000
0.5955,144,0.4645
0.5999,1006,3.2452
0.6042,1006,3.2452
0.6086,0,0.0000
0.6129,0,0.0000
0.6172,1005,3.2419
0.6216,1006,3.2452
0.6259,880,2.8387
0.6302,0,0.0000
0.6346,0,0.0000
0.6389,1007,3.2484
0.6433,1006,3.2452
0.6476,0,0.0000
0.6519,0,0.0000
0.6562,448,1.4452
0.6606,1006,3.2452
0.6649,1006,3.2452
0.6693,0,0.0000
0.6737,0,0.0000
0.6780,1006,3.2452
0.6823,1006,3.2452
0.6867,491,1.5839
0.6910,0,0.0000
0.6953,1,0.0032
0.6997,1005,3.2419
0.7040,1006,3.2452
0.7083,0,0.0000
0.7127,0,0.0000
0.7170,936,3.0194
0.7213,1007,3.2484
0.7257,994,3.2065
0.7300,0,0.0000
0.7343,0,0.0000
0.7387,1007,3.2484
0.7430,1006,3.2452
0.7474,123,0.3968
0.7517,0,0.0000
0.7560,318,1.0258
0.7604,1006,3.2452
0.7647,1007,3.2484
0.7690,0,0.0000
0.7734,0,0.0000
0.7777,1005,3.2419
0.7820,1006,3.2452
0.7864,773,2.4935
0.7907,0,0.0000
0.7950,0,0.0000
0.7994,1006,3.2452
0.8038,1007,3.2484
0.8081,0,0.0000
0.8124,0,0.0000
0.8168,735,2.3710
0.8211,1006,3.2452
0.8254,1003,3.2355
0.8298,0,0.0000
0.8341,0,0.0000
0.8384,1006,3.2452
0.8428,1005,3.2419
0.8471,325,1.0484
0.8515,0,0.0000
0.8558,163,0.5258
0.8601,1006,3.2452
0.8645,1006,3.2452
0.8688,0,0.0000
0.8731,0,0.0000
0.8775,1004,3.2387
0.8818,1006,3.2452
0.8861,850,2.7419
0.8905,0,0.0000
0.8948,0,0.0000
0.8991,1007,3.2484
0.9035,1006,3.2452
0.9078,0,0.0000
0.9121,0,0.0000
0.9165,409,1.3194
0.9208,1005,3.2419
0.9251,1005,3.2419
0.9295,0,0.0000
0.9338,0,0.0000
0.9381,1007,3.2484
0.9425,1005,3.2419
0.9468,574,1.8516
0.9512,0,0.0000
0.9555,0,0.0000
0.9598,1006,3.2452
0.9642,1005,3.2419
0.9685,0,0.0000
0.9729,0,0.0000
0.9772,897,2.8935
0.9815,1006,3.2452
0.9858,1001,3.2290
0.9902,0,0.0000
0.9945,0,0.0000
0.9988,1007,3.2484
1.0032,1005,3.2419
1.0075,180,0.5806
1.0119,0,0.0000
1.0162,267,0.8613
1.0205,1006,3.2452
1.0248,1004,3.2387
1.0292,0,0.0000
1.0335,0,0.0000
1.0380,1005,3.2419
1.0423,1006,3.2452
1.0467,701,2.2613
1.0510,0,0.0000
1.0554,0,0.0000
1.0597,1006,3.2452
1.0642,1005,3.2419
1.0686,0,0.0000
1.0729,0,0.0000
1.0772,826,2.6645
1.0816,1005,3.2419
1.0859,999,3.2226
1.0902,0,0.0000
1.0946,0,0.0000
1.0989,1006,3.2452
1.1032,1006,3.2452
1.1076,173,0.5581
1.1119,0,0.0000
1.1162,219,0.7065
1.1206,1006,3.2452
1.1249,1007,3.2484
1.1293,0,0.0000
1.1336,0,0.0000
1.1380,1006,3.2452
1.1423,1006,3.2452
1.1467,733,2.3645
1.1510,0,0.0000
1.1553,0,0.0000
1.1597,1006,3.2452
1.1640,1005,3.2419
1.1683,0,0.0000
1.1727,0,0.0000
1.1770,670,2.1613
1.1813,1007,3.2484
1.1857,1005,3.2419
1.1900,0,0.0000
1.1943,0,0.0000
1.1987,1004,3.2387
1.2030,1006,3.2452
1.2073,403,1.3000
1.2117,0,0.0000
1.2160,114,0.3677
1.2203,1006,3.2452
1.2247,1007,3.2484
1.2290,0,0.0000
1.2334,0,0.0000
1.2377,1007,3.2484
1.2420,1005,3.2419
1.2464,942,3.0387
1.2507,0,0.0000
1.2550,0,0.0000
1.2594,1006,3.2452
1.2637,1006,3.2452
1.2681,0,0.0000
1.2724,0,0.0000
1.2767,426,1.3742
1.2811,1006,3.2452
1.2854,1005,3.2419
1.2897,0,0.0000
1.2941,0,0.0000
1.2984,1006,3.2452
1.3027,1006,3.2452
1.3071,627,2.0226
1.3114,0,0.0000
1.3157,0,0.0000
1.3201,1006,3.2452
1.3244,1006,3.2452
1.3288,0,0.0000
1.3331,0,0.0000
1.3374,863,2.7839
1.3418,1006,3.2452
1.3461,1003,3.2355
1.3505,0,0.0000
1.3548,0,0.0000
1.3592,1006,3.2452
1.3637,1006,3.2452
1.3680,62,0.2000
1.3724,0,0.0000
1.3768,399,1.2871
1.3811,1006,3.2452
1.3854,1005,3.2419
1.3898,0,0.0000
1.3941,0,0.0000
1.3985,1006,3.2452
1.4028,1006,3.2452
1.4072,624,2.0129
1.4115,0,0.0000
1.4158,0,0.0000
1.4202,1006,3.2452
1.4245,1006,3.2452
1.4288,0,0.0000
1.4332,0,0.0000
1.4375,804,2.5935
1.4420,1007,3.2484
1.4463,996,3.2129
1.4507,0,0.0000
1.4550,0,0.0000
1.4594,1006,3.2452
1.4637,1006,3.2452
1.4680,151,0.4871
1.4722,0,0.0000
1.4765,227,0.7323
1.4808,1006,3.2452
1.4851,1006,3.2452
1.4894,0,0.0000
1.4937,0,0.0000
1.4980,1005,3.2419
1.5023,1006,3.2452
1.5066,951,3.0677
1.5108,0,0.0000
1.5151,0,0.0000
1.5194,1006,3.2452
1.5237,1007,3.2484
1.5280,184,0.5935
1.5323,0,0.0000
1.5366,280,0.9032
1.5409,1006,3.2452
1.5452,1004,3.2387
1.5495,0,0.0000
1.5538,0,0.0000
1.5581,1005,3.2419
1.5623,1007,3.2484
1.5666,954,3.0774
1.5709,0,0.0000
1.5752,0,0.0000
1.5795,1006,3.2452
1.5838,1006,3.2452
1.5881,157,0.5065
1.5923,0,0.0000
1.5966,183,0.5903
1.6009,1006,3.2452
1.6052,1005,3.2419
1.6095,0,0.0000
1.6138,0,0.0000
1.6180,997,3.2161
1.6223,1006,3.2452
1.6266,945,3.0484
1.6309,0,0.0000
1.6352,0,0.0000
1.6395,1005,3.2419
1.6438,1007,3.2484
1.6481,98,0.3161
1.6524,0,0.0000
1.6567,195,0.6290
1.6610,1007,3.2484
1.6653,1005,3.2419
1.6696,0,0.0000
1.6738,0,0.0000
1.6781,1003,3.2355
1.6824,1006,3.2452
1.6867,950,3.0645
1.6910,0,0.0000
1.6953,0,0.0000
1.6996,1006,3.2452
1.7039,1006,3.2452
1.7082,179,0.5774
1.7124,0,0.0000
1.7167,199,0.6419
1.7210,1006,3.2452
1.7253,1006,3.2452
1.7296,0,0.0000
1.7338,0,0.0000
1.7381,1003,3.2355
1.7424,1007,3.2484
1.7467,977,3.1516
1.7510,0,0.0000
1.7553,0,0.0000
1.7596,1006,3.2452
1.7639,1006,3.2452
1.7682,252,0.8129
1.7725,0,0.0000
1.7767,195,0.6290
1.7810,1006,3.2452
1.7853,1006,3.2452
1.7896,0,0.0000
1.7939,0,0.0000
1.7981,1003,3.2355
1.8025,1005,3.2419
1.8067,980,3.1613
1.8110,0,0.0000
1.8153,0,0.0000
1.8196,1006,3.2452
1.8239,1006,3.2452
1.8282,218,0.7032
1.8325,0,0.0000
1.8368,159,0.5129
1.8411,1006,3.2452
1.8454,1001,3.2290
1.8497,0,0.0000
1.8540,0,0.0000
1.8583,989,3.1903
1.8625,1006,3.2452
1.8668,934,3.0129
1.8711,0,0.0000
1.8754,0,0.0000
1.8797,996,3.2129
1.8840,1007,3.2484
1.8883,160,0.5161
1.8926,0,0.0000
1.8969,168,0.5419
1.9011,1006,3.2452
1.9055,1005,3.2419
1.9097,0,0.0000
1.9145,0,0.0000
1.9188,1006,3.2452
1.9231,1006,3.2452
1.9274,769,2.4806
1.9317,0,0.0000
1.9360,0,0.0000
1.9403,1006,3.2452
1.9446,1006,3.2452
1.9488,0,0.0000
1.9532,0,0.0000
1.9574,480,1.5484
1.9618,1006,3.2452
1.9662,996,3.2129
1.9705,0,0.0000
1.9749,0,0.0000
1.9791,1006,3.2452
1.9834,1005,3.2419
1.9877,637,2.0548
1.9920,0,0.0000
1.9963,0,0.0000
2.0005,1007,3.2484
2.0048,1006,3.2452
2.0091,0,0.0000
2.0134,0,0.0000
2.0176,549,1.7710
2.0219,1006,3.2452
2.0262,1005,3.2419
2.0305,0,0.0000
2.0348,0,0.0000
2.0391,1005,3.2419
2.0433,1006,3.2452
2.0477,670,2.1613
2.0519,0,0.0000
2.0563,0,0.0000
2.0605,1006,3.2452
2.0648,1006,3.2452
2.0691,0,0.0000
2.0733,0,0.0000
2.0776,460,1.4839
2.0819,1006,3.2452
2.0862,1005,3.2419
2.0905,0,0.0000
2.0948,0,0.0000
2.0991,1006,3.2452
2.1034,1006,3.2452
2.1076,695,2.2419
2.1119,0,0.0000
2.1162,0,0.0000
2.1205,1006,3.2452
2.1248,1007,3.2484
2.1291,0,0.0000
2.1333,0,0.0000
2.1376,457,1.4742
2.1419,1006,3.2452
2.1462,1005,3.2419
2.1505,0,0.0000
2.1548,0,0.0000
2.1591,1006,3.2452
2.1633,1006,3.2452
2.1676,777,2.5065
2.1719,0,0.0000
2.1761,0,0.0000
2.1805,1007,3.2484
2.1847,1006,3.2452
2.1890,0,0.0000
2.1933,0,0.0000
2.1976,433,1.3968
2.2019,1005,3.2419
2.2062,1005,3.2419
2.2105,0,0.0000
2.2148,0,0.0000
2.2190,1006,3.2452
2.2233,1006,3.2452
2.2276,793,2.5581
2.2319,0,0.0000
2.2362,0,0.0000
2.2405,1006,3.2452
2.2448,1006,3.2452
2.2491,0,0.0000
2.2533,0,0.0000
2.2576,423,1.3645
2.2620,1006,3.2452
2.2664,1005,3.2419
2.2707,0,0.0000
2.2750,0,0.0000
2.2793,1005,3.2419
2.2836,1004,3.2387
2.2879,687,2.2161
2.2922,0,0.0000
2.2964,0,0.0000
2.3007,1006,3.2452
2.3050,1006,3.2452
2.3093,0,0.0000
2.3136,0,0.0000
2.3179,550,1.7742
2.3222,1007,3.2484
2.3265,1005,3.2419
2.3307,0,0.0000
2.3350,0,0.0000
2.3393,1006,3.2452
2.3436,1007,3.2484
2.3479,718,2.3161
2.3522,0,0.0000
2.3565,0,0.0000
2.3607,1006,3.2452
2.3650,1004,3.2387
2.3694,0,0.0000
2.3736,0,0.0000
2.3779,549,1.7710
2.3822,1006,3.2452
2.3865,1005,3.2419
2.3908,0,0.0000
2.3951,0,0.0000
2.3994,1007,3.2484
2.4037,1006,3.2452
2.4080,684,2.2065
2.4123,0,0.0000
2.4166,0,0.0000
2.4209,1007,3.2484
2.4252,1006,3.2452
2.4294,0,0.0000
2.4337,0,0.0000
2.4380,509,1.6419
2.4423,1006,3.2452
2.4466,1006,3.2452
2.4509,0,0.0000
2.4551,0,0.0000
2.4594,1007,3.2484
2.4637,1005,3.2419
2.4680,683,2.2032
2.4723,0,0.0000
2.4766,0,0.0000
2.4809,1005,3.2419
2.4852,1006,3.2452
2.4895,0,0.0000
2.4938,0,0.0000
2.4981,564,1.8194
2.5023,1006,3.2452
2.5066,1006,3.2452
2.5109,0,0.0000
2.5152,0,0.0000
2.5195,1006,3.2452
2.5238,1006,3.2452
2.5281,720,2.3226
2.5324,0,0.0000
2.5366,0,0.0000
2.5409,1006,3.2452
2.5452,1006,3.2452
2.5495,0,0.0000
2.5538,0,0.0000
2.5581,515,1.6613
2.5624,1007,3.2484
2.5667,1006,3.2452
2.5710,0,0.0000
2.5753,0,0.0000
2.5795,1006,3.2452
2.5838,1006,3.2452
2.5881,701,2.2613
2.5924,0,0.0000
2.5967,0,0.0000
2.6010,1006,3.2452
2.6052,1006,3.2452
2.6095,0,0.0000
2.6138,0,0.0000
2.6181,440,1.4194
2.6224,1006,3.2452
2.6267,1003,3.2355
2.6310,0,0.0000
2.6352,0,0.0000
2.6395,1006,3.2452
2.6438,1006,3.2452
2.6481,716,2.3097
2.6524,0,0.0000
2.6567,0,0.0000
2.6609,1006,3.2452
2.6652,1007,3.2484
2.6695,0,0.0000
2.6738,0,0.0000
2.6781,391,1.2613
2.6824,1007,3.2484
2.6866,1005,3.2419
2.6909,0,0.0000
2.6952,0,0.0000
2.6995,1007,3.2484
2.7038,1006,3.2452
2.7081,779,2.5129
2.7124,0,0.0000
2.7167,0,0.0000
2.7210,1006,3.2452
2.7253,1006,3.2452
2.7296,0,0.0000
2.7339,0,0.0000
2.7382,538,1.7355
2.7424,1006,3.2452
2.7467,1004,3.2387
2.7510,0,0.0000
2.7553,0,0.0000
2.7596,1006,3.2452
2.7639,1006,3.2452
2.7681,806,2.6000
2.7724,0,0.0000
2.7767,0,0.0000
2.7810,1007,3.2484
2.7853,1006,3.2452
2.7896,0,0.0000
2.7939,0,0.0000
2.7982,419,1.3516
2.8027,1007,3.2484
2.8071,1004,3.2387
2.8153,0,0.0000
2.8199,1006,3.2452
2.8244,1006,3.2452
2.8288,403,1.3000
2.8331,0,0.0000
2.8376,114,0.3677
2.8420,1006,3.2452
2.8463,1005,3.2419
2.8507,0,0.0000
2.8550,0,0.0000
2.8598,1006,3.2452
2.8647,1006,3.2452
2.8692,100,0.3226
2.8737,0,0.0000
2.8780,239,0.7710
2.8823,1007,3.2484
2.8866,1006,3.2452
2.8909,0,0.0000
2.8952,0,0.0000
2.8995,1006,3.2452
2.9038,1006,3.2452
2.9081,874,2.8194
2.9123,0,0.0000
2.9167,0,0.0000
2.9210,1005,3.2419
2.9253,1006,3.2452
2.9296,4,0.0129
2.9338,0,0.0000
2.9381,347,1.1194
2.9424,1005,3.2419
2.9467,1006,3.2452
2.9510,0,0.0000
2.9554,0,0.0000
2.9596,1006,3.2452
2.9640,1007,3.2484
2.9682,848,2.7355
2.9725,0,0.0000
2.9768,0,0.0000
2.9811,1005,3.2419
2.9854,1005,3.2419
2.9897,0,0.0000
2.9940,0,0.0000
2.9983,452,1.4581
3.0026,1006,3.2452
3.0069,1005,3.2419
3.0112,0,0.0000
3.0155,0,0.0000
3.0198,1007,3.2484
3.0241,1007,3.2484
3.0284,792,2.5548
3.0327,0,0.0000
3.0369,0,0.0000
3.0412,1006,3.2452
3.0455,1006,3.2452
3.0498,0,0.0000
3.0541,0,0.0000
3.0584,396,1.2774
3.0627,1006,3.2452
3.0670,1005,3.2419
3.0713,0,0.0000
3.0756,0,0.0000
3.0799,1005,3.2419
3.0842,1006,3.2452
3.0885,754,2.4323
3.0927,0,0.0000
3.0970,0,0.0000
3.1014,1006,3.2452
3.1056,1007,3.2484
3.1099,0,0.0000
3.1142,0,0.0000
3.1185,480,1.5484
3.1228,1007,3.2484
3.1271,1004,3.2387
3.1314,0,0.0000
3.1357,0,0.0000
3.1400,1007,3.2484
3.1443,1006,3.2452
3.1486,755,2.4355
3.1529,0,0.0000
3.1572,0,0.0000
3.1615,1006,3.2452
3.1659,1006,3.2452
3.1702,0,0.0000
3.1745,0,0.0000
3.1788,660,2.1290
3.1831,1006,3.2452
3.1874,1005,3.2419
3.1916,0,0.0000
3.1959,0,0.0000
3.2002,1006,3.2452
3.2045,1006,3.2452
3.2088,683,2.2032
3.2131,0,0.0000
3.2174,0,0.0000
3.2217,1006,3.2452
3.2260,1006,3.2452
3.2302,0,0.0000
3.2345,0,0.0000
3.2388,599,1.9323
3.2431,1006,3.2452
3.2474,1005,3.2419
3.2517,0,0.0000
3.2560,0,0.0000
3.2603,1004,3.2387
3.2646,1004,3.2387
3.2689,614,1.9806
3.2732,0,0.0000
3.2774,0,0.0000
3.2818,1007,3.2484
3.2860,1005,3.2419
3.2903,0,0.0000
3.2946,0,0.0000
3.2989,548,1.7677
3.3032,1006,3.2452
3.3075,1005,3.2419
3.3118,0,0.0000
3.3161,0,0.0000
3.3203,1006,3.2452
3.3246,1006,3.2452
3.3289,656,2.1161
3.3332,0,0.0000
3.3374,0,0.0000
3.3417,1007,3.2484
3.3460,1007,3.2484
3.3503,0,0.0000
3.3547,0,0.0000
3.3590,576,1.8581
3.3633,1006,3.2452
3.3677,1004,3.2387
3.3720,0,0.0000
3.3763,0,0.0000
3.3807,1006,3.2452
3.3850,1006,3.2452
3.3894,405,1.3065
3.3937,0,0.0000
3.3981,99,0.3194
3.4024,1007,3.2484
3.4068,1006,3.2452
3.4112,0,0.0000
3.4155,0,0.0000
3.4199,1005,3.2419
3.4242,1005,3.2419
3.4285,896,2.8903
3.4329,0,0.0000
3.4372,0,0.0000
3.4415,1005,3.2419
3.4459,1006,3.2452
3.4502,0,0.0000
3.4545,0,0.0000
3.4589,470,1.5161
3.4632,1005,3.2419
3.4675,1004,3.2387
3.4719,0,0.0000
3.4762,0,0.0000
3.4806,1006,3.2452
3.4849,1006,3.2452
3.4893,560,1.8065
3.4936,0,0.0000
3.4980,16,0.0516
3.5023,1006,3.2452
3.5066,1006,3.2452
3.5110,0,0.0000
3.5153,0,0.0000
3.5196,967,3.1194
3.5240,1005,3.2419
3.5283,999,3.2226
3.5326,0,0.0000
3.5370,0,0.0000
3.5413,1006,3.2452
3.5456,1005,3.2419
3.5500,168,0.5419
3.5543,0,0.0000
3.5586,360,1.1613
3.5631,1007,3.2484
3.5674,1006,3.2452
3.5717,0,0.0000
3.5760,0,0.0000
3.5803,1005,3.2419
3.5846,1007,3.2484
3.5889,810,2.6129
3.5932,0,0.0000
3.5975,0,0.0000
3.6018,1006,3.2452
3.6061,1006,3.2452
3.6104,0,0.0000
3.6147,0,0.0000
3.6190,428,1.3806
3.6233,1006,3.2452
3.6276,1004,3.2387
3.6319,0,0.0000
3.6362,0,0.0000
3.6404,1005,3.2419
3.6447,1006,3.2452
3.6490,758,2.4452
3.6533,0,0.0000
3.6576,0,0.0000
3.6619,1006,3.2452
3.6662,1005,3.2419
3.6706,0,0.0000
3.6749,0,0.0000
3.6793,611,1.9710
3.6836,1007,3.2484
3.6880,1005,3.2419
3.6923,0,0.0000
3.6966,0,0.0000
3.7010,1006,3.2452
3.7053,1005,3.2419
3.7096,434,1.4000
3.7140,0,0.0000
3.7183,118,0.3806
3.7226,1006,3.2452
3.7270,1006,3.2452
3.7313,0,0.0000
3.7357,0,0.0000
3.7400,1004,3.2387
3.7443,1005,3.2419
3.7486,982,3.1677
3.7530,0,0.0000
3.7573,0,0.0000
3.7617,1006,3.2452
3.7662,1005,3.2419
3.7705,0,0.0000
3.7748,0,0.0000
3.7791,407,1.3129
3.7834,1006,3.2452
3.7877,1005,3.2419
3.7920,0,0.0000
3.7963,0,0.0000
3.8006,1006,3.2452
3.8049,1006,3.2452
3.8092,744,2.4000
3.8134,0,0.0000
3.8181,0,0.0000
3.8225,1007,3.2484
3.8268,1005,3.2419
3.8311,0,0.0000
3.8354,0,0.0000
3.8397,698,2.2516
3.8440,1006,3.2452
3.8483,1006,3.2452
3.8526,0,0.0000
3.8569,0,0.0000
3.8611,1005,3.2419
3.8655,1006,3.2452
3.8699,374,1.2065
3.8742,0,0.0000
3.8785,74,0.2387
3.8829,1006,3.2452
3.8872,1005,3.2419
3.8915,0,0.0000
3.8959,0,0.0000
3.9002,1004,3.2387
3.9045,1007,3.2484
3.9089,945,3.0484
3.9132,0,0.0000
3.9175,0,0.0000
3.9219,1005,3.2419
3.9262,1007,3.2484
3.9306,25,0.0806
3.9349,0,0.0000
3.9393,482,1.5548
3.9436,1006,3.2452
3.9480,1004,3.2387
3.9523,0,0.0000
3.9566,0,0.0000
3.9610,1006,3.2452
3.9653,1006,3.2452
3.9696,635,2.0484
3.9739,0,0.0000
3.9782,0,0.0000
3.9825,1006,3.2452
3.9868,1006,3.2452
3.9911,0,0.0000
3.9954,0,0.0000
3.9997,719,2.3194
4.0040,1006,3.2452
4.0083,1005,3.2419
4.0126,0,0.0000
4.0169,0,0.0000
4.0212,1006,3.2452
4.0255,1006,3.2452
4.0298,528,1.7032
4.0341,0,0.0000
4.0384,0,0.0000
4.0427,1006,3.2452
4.0469,1006,3.2452
4.0512,0,0.0000
4.0555,0,0.0000
4.0600,760,2.4516
4.0646,1006,3.2452
4.0689,926,2.9871
4.0733,0,0.0000
4.0776,0,0.0000
4.0820,1006,3.2452
4.0863,1006,3.2452
4.0906,0,0.0000
4.0949,0,0.0000
4.0993,333,1.0742
4.1037,1007,3.2484
4.1080,1005,3.2419
4.1123,0,0.0000
4.1167,0,0.0000
4.1210,1004,3.2387
4.1253,1005,3.2419
4.1297,632,2.0387
4.1340,0,0.0000
4.1383,0,0.0000
4.1427,1006,3.2452
4.1470,1006,3.2452
4.1513,0,0.0000
4.1557,0,0.0000
4.1600,762,2.4581
4.1643,1006,3.2452
4.1687,1003,3.2355
4.1730,0,0.0000
4.1773,0,0.0000
4.1816,1005,3.2419
4.1859,1006,3.2452
4.1902,411,1.3258
4.1945,0,0.0000
4.1988,64,0.2065
4.2030,1007,3.2484
4.2073,1005,3.2419
4.2116,0,0.0000
4.2159,0,0.0000
4.2202,874,2.8194
4.2245,1007,3.2484
4.2288,1001,3.2290
4.2331,0,0.0000
4.2374,0,0.0000
4.2417,1006,3.2452
4.2460,1006,3.2452
4.2503,355,1.1452
4.2546,0,0.0000
4.2589,88,0.2839
4.2632,1005,3.2419
4.2675,1006,3.2452
4.2718,0,0.0000
4.2761,0,0.0000
4.2805,994,3.2065
4.2848,1004,3.2387
4.2891,974,3.1419
4.2935,0,0.0000
4.2978,0,0.0000
4.3021,1006,3.2452
4.3065,1004,3.2387
4.3108,52,0.1677
4.3151,0,0.0000
4.3194,358,1.1548
4.3238,1007,3.2484
4.3281,1005,3.2419
4.3325,0,0.0000
4.3368,0,0.0000
4.3411,1006,3.2452
4.3454,1006,3.2452
4.3498,716,2.3097
4.3541,0,0.0000
4.3584,0,0.0000
4.3628,1006,3.2452
4.3671,1006,3.2452
4.3714,0,0.0000
4.3758,0,0.0000
4.3801,682,2.2000
4.3843,1006,3.2452
4.3887,1004,3.2387
4.3929,0,0.0000
4.3972,0,0.0000
4.4015,1007,3.2484
4.4058,1006,3.2452
4.4101,562,1.8129
4.4144,0,0.0000
4.4187,0,0.0000
4.4230,1006,3.2452
4.4273,1006,3.2452
4.4316,0,0.0000
4.4359,0,0.0000
4.4402,736,2.3742
4.4445,1006,3.2452
4.4488,1005,3.2419
4.4531,0,0.0000
4.4574,0,0.0000
4.4616,1000,3.2258
4.4659,1006,3.2452
4.4703,423,1.3645
4.4747,0,0.0000
4.4790,46,0.1484
4.4833,1005,3.2419
4.4877,1004,3.2387
4.4920,0,0.0000
4.4963,0,0.0000
4.5007,972,3.1355
4.5050,1005,3.2419
4.5094,922,2.9742
4.5137,0,0.0000
4.5180,0,0.0000
4.5223,1006,3.2452
4.5266,1007,3.2484
4.5309,118,0.3806
4.5352,0,0.0000
4.5395,222,0.7161
4.5438,1006,3.2452
4.5481,1005,3.2419
4.5523,0,0.0000
4.5567,0,0.0000
4.5609,1007,3.2484
4.5653,1005,3.2419
4.5696,912,2.9419
4.5738,0,0.0000
4.5781,0,0.0000
4.5824,1006,3.2452
4.5867,1006,3.2452
4.5910,116,0.3742
4.5953,0,0.0000
4.5996,270,0.8710
4.6039,1007,3.2484
4.6081,1007,3.2484
4.6124,0,0.0000
4.6167,0,0.0000
4.6210,1006,3.2452
4.6253,1006,3.2452
4.6296,898,2.8968
4.6339,0,0.0000
4.6382,0,0.0000
4.6425,1006,3.2452
4.6468,1006,3.2452
4.6511,64,0.2065
4.6554,0,0.0000
4.6598,414,1.3355
4.6644,1006,3.2452
4.6688,1005,3.2419
4.6731,0,0.0000
4.6773,0,0.0000
4.6816,1006,3.2452
4.6859,1006,3.2452
4.6902,601,1.9387
4.6945,0,0.0000
4.6988,0,0.0000
4.7031,1006,3.2452
4.7074,1007,3.2484
4.7117,0,0.0000
4.7160,0,0.0000
4.7203,641,2.0677
4.7246,1006,3.2452
4.7288,1005,3.2419
4.7331,0,0.0000
4.7374,0,0.0000
4.7417,1006,3.2452
4.7460,1005,3.2419
4.7503,626,2.0194
4.7546,0,0.0000
4.7589,0,0.0000
4.7632,1006,3.2452
4.7675,1006,3.2452
4.7718,0,0.0000
4.7761,0,0.0000
4.7804,631,2.0355
4.7847,1006,3.2452
4.7890,1004,3.2387
4.7933,0,0.0000
4.7976,0,0.0000
4.8018,1006,3.2452
4.8061,1006,3.2452
4.8104,566,1.8258
4.8148,0,0.0000
4.8190,0,0.0000
4.8233,1006,3.2452
4.8276,1006,3.2452
4.8319,0,0.0000
4.8362,0,0.0000
4.8405,631,2.0355
4.8448,1007,3.2484
4.8491,1004,3.2387
4.8534,0,0.0000
4.8577,0,0.0000
4.8620,1006,3.2452
4.8662,1006,3.2452
4.8705,516,1.6645
4.8749,0,0.0000
4.8792,0,0.0000
4.8835,1006,3.2452
4.8878,1006,3.2452
4.8921,0,0.0000
4.8964,0,0.0000
4.9007,746,2.4065
4.9050,1006,3.2452
4.9093,1003,3.2355
4.9136,0,0.0000
4.9179,0,0.0000
4.9222,1005,3.2419
4.9265,1006,3.2452
4.9308,461,1.4871
4.9351,0,0.0000
4.9394,64,0.2065
4.9437,1005,3.2419
4.9480,1004,3.2387
4.9523,0,0.0000
4.9566,0,0.0000
4.9609,974,3.1419
4.9654,1006,3.2452
4.9700,904,2.9161
4.9743,0,0.0000
4.9787,0,0.0000
4.9831,1006,3.2452
4.9874,1006,3.2452
4.9917,0,0.0000
4.9960,0,0.0000
5.0003,524,1.6903
5.0048,1006,3.2452
5.0104,706,2.2774
5.0149,0,0.0000
5.0195,84,0.2710
5.0240,1006,3.2452
5.0287,1006,3.2452
5.0333,0,0.0000
5.0378,0,0.0000
5.0422,1007,3.2484
5.0466,1006,3.2452
5.0509,0,0.0000
5.0559,0,0.0000
5.0603,446,1.4387
5.0647,1007,3.2484
5.0690,1005,3.2419
5.0734,0,0.0000
5.0778,0,0.0000
5.0822,1006,3.2452
5.0864,1006,3.2452
5.0907,581,1.8742
5.0950,0,0.0000
5.0993,0,0.0000
5.1035,1005,3.2419
5.1078,1005,3.2419
5.1121,0,0.0000
5.1163,0,0.0000
5.1206,571,1.8419
5.1249,1006,3.2452
5.1292,1005,3.2419
5.1335,0,0.0000
5.1377,0,0.0000
5.1420,1007,3.2484
5.1463,1006,3.2452
5.1505,717,2.3129
5.1548,0,0.0000
5.1591,0,0.0000
5.1633,1005,3.2419
5.1676,1005,3.2419
5.1719,0,0.0000
5.1761,0,0.0000
5.1804,464,1.4968
5.1847,1006,3.2452
5.1890,1005,3.2419
5.1933,0,0.0000
5.1976,0,0.0000
5.2019,1006,3.2452
5.2062,1006,3.2452
5.2105,762,2.4581
5.2149,0,0.0000
5.2192,0,0.0000
5.2234,1006,3.2452
5.2278,1006,3.2452
5.2321,0,0.0000
5.2364,0,0.0000
5.2406,541,1.7452
5.2450,1005,3.2419
5.2494,1004,3.2387
5.2537,0,0.0000
5.2579,0,0.0000
5.2622,995,3.2097
5.2665,1006,3.2452
5.2707,643,2.0742
5.2750,0,0.0000
5.2793,0,0.0000
5.2837,1005,3.2419
5.2880,1005,3.2419
5.2923,0,0.0000
5.2966,0,0.0000
5.3009,598,1.9290
5.3052,1005,3.2419
5.3095,1006,3.2452
5.3138,0,0.0000
5.3181,0,0.0000
5.3224,1006,3.2452
5.3266,1005,3.2419
5.3309,547,1.7645
5.3353,0,0.0000
5.3395,0,0.0000
5.3438,1007,3.2484
5.3481,1004,3.2387
5.3524,0,0.0000
5.3568,0,0.0000
5.3610,726,2.3419
5.3653,1007,3.2484
5.3696,1004,3.2387
5.3739,0,0.0000
5.3782,0,0.0000
5.3825,1006,3.2452
5.3868,1006,3.2452
5.3910,555,1.7903
5.3953,0,0.0000
5.3996,0,0.0000
5.4038,1006,3.2452
5.4081,1007,3.2484
5.4125,0,0.0000
5.4168,0,0.0000
5.4210,684,2.2065
5.4253,1007,3.2484
5.4295,1004,3.2387
5.4338,0,0.0000
5.4380,0,0.0000
5.4423,1005,3.2419
5.4465,1006,3.2452
5.4508,654,2.1097
5.4551,0,0.0000
5.4594,0,0.0000
5.4636,1005,3.2419
5.4679,1006,3.2452
5.4722,0,0.0000
5.4765,0,0.0000
5.4807,450,1.4516
5.4851,1006,3.2452
5.4895,1005,3.2419
5.4938,0,0.0000
5.4981,0,0.0000
5.5024,1004,3.2387
5.5067,1007,3.2484
5.5110,579,1.8677
5.5153,0,0.0000
5.5196,0,0.0000
5.5239,1006,3.2452
5.5282,1005,3.2419
5.5325,0,0.0000
5.5368,0,0.0000
5.5411,686,2.2129
5.5454,1005,3.2419
5.5497,1005,3.2419
5.5550,0,0.0000
5.5603,298,0.9613
5.5650,1006,3.2452
5.5696,1005,3.2419
5.5747,0,0.0000
5.5793,0,0.0000
5.5837,1005,3.2419
5.5880,1005,3.2419
5.5923,0,0.0000
5.5966,0,0.0000
5.6009,487,1.5710
5.6052,1007,3.2484
5.6095,1006,3.2452
5.6138,0,0.0000
5.6181,0,0.0000
5.6224,1005,3.2419
5.6267,1005,3.2419
5.6310,678,2.1871
5.6353,0,0.0000
5.6396,0,0.0000
5.6439,1006,3.2452
5.6482,1007,3.2484
5.6525,0,0.0000
5.6569,0,0.0000
5.6611,606,1.9548
5.6654,1006,3.2452
5.6697,1006,3.2452
5.6740,0,0.0000
5.6784,0,0.0000
5.6828,1006,3.2452
5.6871,1006,3.2452
5.6914,515,1.6613
5.6957,0,0.0000
5.7000,47,0.1516
5.7043,1006,3.2452
5.7086,1006,3.2452
5.7129,0,0.0000
5.7172,0,0.0000
5.7215,814,2.6258
5.7262,1006,3.2452
5.7305,928,2.9935
5.7348,0,0.0000
5.7392,0,0.0000
5.7435,1006,3.2452
5.7478,1006,3.2452
5.7520,78,0.2516
5.7563,0,0.0000
5.7606,274,0.8839
5.7649,1005,3.2419
5.7693,1005,3.2419
5.7736,0,0.0000
5.7779,0,0.0000
5.7822,1005,3.2419
5.7865,1007,3.2484
5.7908,811,2.6161
5.7951,0,0.0000
5.7994,0,0.0000
5.8037,1006,3.2452
5.8080,1006,3.2452
5.8123,0,0.0000
5.8167,0,0.0000
5.8210,390,1.2581
5.8253,1006,3.2452
5.8296,1005,3.2419
5.8339,0,0.0000
5.8382,0,0.0000
5.8425,1006,3.2452
5.8468,1006,3.2452
5.8511,741,2.3903
5.8554,0,0.0000
5.8598,0,0.0000
5.8643,1006,3.2452
5.8688,1006,3.2452
5.8731,0,0.0000
5.8774,0,0.0000
5.8818,986,3.1806
5.8861,1006,3.2452
5.8905,999,3.2226
5.8948,0,0.0000
5.8991,0,0.0000
5.9035,1005,3.2419
5.9079,1005,3.2419
5.9122,127,0.4097
5.9165,0,0.0000
5.9208,396,1.2774
5.9252,1007,3.2484
5.9295,1006,3.2452
5.9339,0,0.0000
5.9382,0,0.0000
5.9425,1006,3.2452
5.9469,1006,3.2452
5.9512,746,2.4065
5.9555,0,0.0000
5.9599,0,0.0000
5.9642,1005,3.2419
5.9685,1006,3.2452
5.9729,0,0.0000
5.9772,0,0.0000
5.9817,744,2.4000
5.9860,1006,3.2452
5.9904,1001,3.2290
5.9947,0,0.0000
5.9990,0,0.0000
6.0034,1006,3.2452
6.0077,1006,3.2452
6.0120,211,0.6806
6.0164,0,0.0000
6.0207,154,0.4968
6.0250,1006,3.2452
6.0294,1006,3.2452
6.0337,0,0.0000
6.0381,0,0.0000
6.0424,1005,3.2419
6.0468,1006,3.2452
6.0511,826,2.6645
6.0554,0,0.0000
6.0597,0,0.0000
6.0641,1007,3.2484
6.0684,1006,3.2452
6.0727,0,0.0000
6.0771,0,0.0000
6.0814,543,1.7516
6.0857,1006,3.2452
6.0901,1004,3.2387
6.0944,0,0.0000
6.0988,0,0.0000
6.1031,1005,3.2419
6.1074,1006,3.2452
6.1117,554,1.7871
6.1160,0,0.0000
6.1203,0,0.0000
6.1246,1006,3.2452
6.1289,1005,3.2419
6.1332,0,0.0000
6.1375,0,0.0000
6.1418,759,2.4484
6.1461,1006,3.2452
6.1504,1004,3.2387
6.1547,0,0.0000
6.1589,0,0.0000
6.1632,1006,3.2452
6.1675,1006,3.2452
6.1718,498,1.6065
6.1761,0,0.0000
6.1804,40,0.1290
6.1847,1006,3.2452
6.1890,1007,3.2484
6.1933,0,0.0000
6.1976,0,0.0000
6.2019,756,2.4387
6.2062,1006,3.2452
6.2105,1002,3.2323
6.2148,0,0.0000
6.2191,0,0.0000
6.2234,1006,3.2452
6.2277,1006,3.2452
6.2322,202,0.6516
6.2369,0,0.0000
6.2414,496,1.6000
6.2458,1006,3.2452
6.2501,1006,3.2452
6.2544,0,0.0000
6.2587,0,0.0000
6.2630,1005,3.2419
6.2673,1006,3.2452
6.2715,694,2.2387
6.2759,0,0.0000
6.2801,0,0.0000
6.2846,1006,3.2452
6.2889,1006,3.2452
6.2932,0,0.0000
6.2975,0,0.0000
6.3018,677,2.1839
6.3061,1006,3.2452
6.3104,1005,3.2419
6.3147,0,0.0000
6.3190,0,0.0000
6.3233,1005,3.2419
6.3275,1006,3.2452
6.3319,579,1.8677
6.3361,0,0.0000
6.3404,0,0.0000
6.3447,1006,3.2452
6.3490,1005,3.2419
6.3533,0,0.0000
6.3576,0,0.0000
6.3619,682,2.2000
6.3662,1005,3.2419
6.3705,1004,3.2387
6.3748,0,0.0000
6.3791,0,0.0000
6.3834,1005,3.2419
6.3877,1005,3.2419
6.3920,481,1.5516
6.3963,0,0.0000
6.4005,0,0.0000
6.4048,1006,3.2452
6.4091,1007,3.2484
6.4134,0,0.0000
6.4177,0,0.0000
6.4220,728,2.3484
6.4263,1006,3.2452
6.4306,1004,3.2387
6.4349,0,0.0000
6.4393,0,0.0000
6.4437,1006,3.2452
6.4479,1007,3.2484
6.4523,324,1.0452
6.4565,0,0.0000
6.4610,169,0.5452
6.4655,1007,3.2484
6.4698,1006,3.2452
6.4741,0,0.0000
6.4784,0,0.0000
6.4827,1006,3.2452
6.4871,1006,3.2452
6.4913,876,2.8258
6.4956,0,0.0000
6.4999,0,0.0000
6.5043,1007,3.2484
6.5086,1007,3.2484
6.5129,0,0.0000
6.5172,0,0.0000
6.5214,343,1.1065
6.5258,1006,3.2452
6.5301,1005,3.2419
6.5344,0,0.0000
6.5387,0,0.0000
6.5430,1006,3.2452
6.5473,1006,3.2452
6.5516,791,2.5516
6.5559,0,0.0000
6.5602,0,0.0000
6.5645,1006,3.2452
6.5688,1006,3.2452
6.5731,0,0.0000
6.5774,0,0.0000
6.5817,464,1.4968
6.5860,1006,3.2452
6.5903,1006,3.2452
6.5946,0,0.0000
6.5989,0,0.0000
6.6032,1006,3.2452
6.6075,1005,3.2419
6.6118,688,2.2194
6.6161,0,0.0000
6.6204,0,0.0000
6.6247,1006,3.2452
6.6290,1004,3.2387
6.6333,0,0.0000
6.6376,0,0.0000
6.6420,569,1.8355
6.6462,1006,3.2452
6.6505,1004,3.2387
6.6548,0,0.0000
6.6591,0,0.0000
6.6634,1007,3.2484
6.6677,1006,3.2452
6.6720,630,2.0323
6.6763,0,0.0000
6.6806,0,0.0000
6.6849,1007,3.2484
6.6892,1005,3.2419
6.6935,0,0.0000
6.6978,0,0.0000
6.7021,658,2.1226
6.7064,1000,3.2258
6.7107,1003,3.2355
6.7150,0,0.0000
6.7193,0,0.0000
6.7236,1006,3.2452
6.7279,1005,3.2419
6.7322,564,1.8194
6.7365,0,0.0000
6.7408,9,0.0290
6.7451,1006,3.2452
6.7494,1006,3.2452
6.7538,0,0.0000
6.7581,0,0.0000
6.7624,859,2.7710
6.7668,1006,3.2452
6.7711,1000,3.2258
6.7754,0,0.0000
6.7797,0,0.0000
6.7840,1005,3.2419
6.7884,1005,3.2419
6.7926,326,1.0516
6.7969,0,0.0000
6.8013,156,0.5032
6.8055,1007,3.2484
6.8099,1005,3.2419
6.8142,0,0.0000
6.8185,0,0.0000
6.8228,1001,3.2290
6.8271,1006,3.2452
6.8314,962,3.1032
6.8357,0,0.0000
6.8400,0,0.0000
6.8442,1005,3.2419
6.8485,1006,3.2452
6.8528,196,0.6323
6.8571,0,0.0000
6.8614,165,0.5323
6.8657,1006,3.2452
6.8700,1006,3.2452
6.8743,0,0.0000
6.8786,0,0.0000
6.8829,1004,3.2387
6.8872,1006,3.2452
6.8915,928,2.9935
6.8959,0,0.0000
6.9002,0,0.0000
6.9045,1005,3.2419
6.9088,1006,3.2452
6.9131,91,0.2935
6.9174,0,0.0000
6.9217,318,1.0258
6.9260,1006,3.2452
6.9303,1006,3.2452
6.9346,0,0.0000
6.9389,0,0.0000
6.9431,1004,3.2387
6.9474,1006,3.2452
6.9517,880,2.8387
6.9561,0,0.0000
6.9603,0,0.0000
6.9646,1006,3.2452
6.9689,1005,3.2419
6.9732,9,0.0290
6.9775,0,0.0000
6.9818,345,1.1129
6.9861,1006,3.2452
6.9904,1005,3.2419
6.9948,0,0.0000
6.9991,0,0.0000
7.0034,1007,3.2484
7.0077,1007,3.2484
7.0120,784,2.5290
7.0163,0,0.0000
7.0206,0,0.0000
7.0249,1006,3.2452
7.0292,1004,3.2387
7.0335,0,0.0000
7.0378,0,0.0000
7.0421,475,1.5323
7.0464,1006,3.2452
7.0507,1006,3.2452
7.0550,0,0.0000
7.0593,0,0.0000
7.0636,1005,3.2419
7.0680,1006,3.2452
7.0723,663,2.1387
7.0766,0,0.0000
7.0809,0,0.0000
7.0852,1007,3.2484
7.0895,1006,3.2452
7.0938,0,0.0000
7.0981,0,0.0000
7.1024,643,2.0742
7.1067,1006,3.2452
7.1110,1004,3.2387
7.1153,0,0.0000
7.1196,0,0.0000
7.1239,1006,3.2452
7.1282,1005,3.2419
7.1325,559,1.8032
7.1368,0,0.0000
7.1411,0,0.0000
7.1454,1006,3.2452
7.1497,1006,3.2452
7.1540,0,0.0000
7.1583,0,0.0000
7.1626,756,2.4387
7.1669,1006,3.2452
7.1712,1003,3.2355
7.1755,0,0.0000
7.1798,0,0.0000
7.1841,1006,3.2452
7.1884,1007,3.2484
7.1927,495,1.5968
7.1970,0,0.0000
7.2013,1,0.0032
7.2055,1006,3.2452
7.2099,1007,3.2484
7.2142,0,0.0000
7.2185,0,0.0000
7.2228,808,2.6065
7.2271,1005,3.2419
7.2314,1003,3.2355
7.2357,0,0.0000
7.2399,0,0.0000
7.2443,1007,3.2484
7.2485,1005,3.2419
7.2529,417,1.3452
7.2572,0,0.0000
7.2614,41,0.1323
7.2658,1007,3.2484
7.2701,1006,3.2452
7.2744,0,0.0000
7.2787,0,0.0000
7.2830,908,2.9290
7.2873,1006,3.2452
7.2916,1000,3.2258
7.2959,0,0.0000
7.3002,0,0.0000
7.3045,1006,3.2452
7.3088,1006,3.2452
7.3131,295,0.9516
7.3174,0,0.0000
7.3217,166,0.5355
7.3260,1007,3.2484
7.3303,1005,3.2419
7.3346,0,0.0000
7.3389,0,0.0000
7.3432,1000,3.2258
7.3475,1007,3.2484
7.3518,991,3.1968
7.3561,0,0.0000
7.3605,0,0.0000
7.3652,1007,3.2484
7.3695,1007,3.2484
7.3739,0,0.0000
7.3782,0,0.0000
7.3824,527,1.7000
7.3868,1005,3.2419
7.3911,1004,3.2387
7.3954,0,0.0000
7.3997,0,0.0000
7.4040,1006,3.2452
7.4083,1007,3.2484
7.4126,636,2.0516
7.4169,0,0.0000
7.4212,0,0.0000
7.4255,1006,3.2452
7.4298,1006,3.2452
7.4341,0,0.0000
7.4384,0,0.0000
7.4427,599,1.9323
7.4470,1006,3.2452
7.4513,1004,3.2387
7.4556,0,0.0000
7.4599,0,0.0000
7.4642,1006,3.2452
7.4685,1006,3.2452
7.4728,558,1.8000
7.4771,0,0.0000
7.4814,0,0.0000
7.4857,1006,3.2452
7.4899,1007,3.2484
7.4942,0,0.0000
7.4985,0,0.0000
7.5028,702,2.2645
7.5071,1005,3.2419
7.5114,1004,3.2387
7.5157,0,0.0000
7.5201,0,0.0000
7.5243,1006,3.2452
7.5286,1006,3.2452
7.5329,512,1.6516
7.5372,0,0.0000
7.5415,0,0.0000
7.5458,1005,3.2419
7.5501,1006,3.2452
7.5544,0,0.0000
7.5587,0,0.0000
7.5630,742,2.3935
7.5673,1005,3.2419
7.5716,1004,3.2387
7.5759,0,0.0000
7.5802,0,0.0000
7.5845,1005,3.2419
7.5888,1005,3.2419
7.5931,457,1.4742
7.5974,0,0.0000
7.6017,55,0.1774
7.6060,1006,3.2452
7.6103,1006,3.2452
7.6146,0,0.0000
7.6189,0,0.0000
7.6232,869,2.8032
7.6280,1006,3.2452
7.6323,888,2.8645
7.6366,0,0.0000
7.6409,0,0.0000
7.6452,1006,3.2452
7.6495,1006,3.2452
7.6538,2,0.0065
7.6582,0,0.0000
7.6625,471,1.5194
7.6670,1005,3.2419
7.6713,1005,3.2419
7.6756,0,0.0000
7.6799,0,0.0000
7.6842,1006,3.2452
7.6885,1006,3.2452
7.6928,701,2.2613
7.6971,0,0.0000
7.7014,0,0.0000
7.7057,1005,3.2419
7.7100,1006,3.2452
7.7143,0,0.0000
7.7186,0,0.0000
7.7229,570,1.8387
7.7272,1006,3.2452
7.7315,1007,3.2484
7.7358,0,0.0000
7.7401,0,0.0000
7.7444,1006,3.2452
7.7487,1006,3.2452
7.7530,591,1.9065
7.7573,0,0.0000
7.7616,0,0.0000
7.7660,1006,3.2452
7.7703,1005,3.2419
7.7745,0,0.0000
7.7788,0,0.0000
7.7831,679,2.1903
7.7874,1005,3.2419
7.7917,1004,3.2387
7.7960,0,0.0000
7.8003,0,0.0000
7.8046,1006,3.2452
7.8089,1006,3.2452
7.8132,513,1.6548
7.8175,0,0.0000
7.8218,0,0.0000
7.8261,1005,3.2419
7.8304,1006,3.2452
7.8347,0,0.0000
7.8390,0,0.0000
7.8433,760,2.4516
7.8476,1007,3.2484
7.8519,1004,3.2387
7.8562,0,0.0000
7.8605,0,0.0000
7.8648,1006,3.2452
7.8691,996,3.2129
7.8734,434,1.4000
7.8777,0,0.0000
7.8830,648,2.0903
7.8895,1007,3.2484
7.8939,112,0.3613
7.8983,0,0.0000
7.9037,1005,3.2419
7.9081,1006,3.2452
7.9128,780,2.5161
7.9172,0,0.0000
7.9217,0,0.0000
7.9271,1006,3.2452
7.9316,1005,3.2419
7.9360,0,0.0000
7.9403,0,0.0000
7.9447,1006,3.2452
7.9495,1007,3.2484
7.9540,17,0.0548
7.9584,0,0.0000
7.9627,334,1.0774
7.9670,1007,3.2484
7.9713,1006,3.2452
7.9756,0,0.0000
7.9799,0,0.0000
7.9842,1005,3.2419
7.9884,1005,3.2419
7.9928,786,2.5355
7.9970,0,0.0000
8.0013,0,0.0000
8.0056,1006,3.2452
8.0099,1006,3.2452
8.0142,0,0.0000
8.0184,0,0.0000
8.0227,300,0.9677
8.0270,1006,3.2452
8.0313,1005,3.2419
8.0356,0,0.0000
8.0399,0,0.0000
8.0442,1006,3.2452
8.0484,1005,3.2419
8.0528,841,2.7129
8.0570,0,0.0000
8.0614,0,0.0000
8.0656,1006,3.2452
8.0699,1006,3.2452
8.0742,0,0.0000
8.0785,0,0.0000
8.0828,352,1.1355
8.0871,1005,3.2419
8.0914,1005,3.2419
8.0957,0,0.0000
8.0999,0,0.0000
8.1043,1005,3.2419
8.1085,1006,3.2452
8.1128,837,2.7000
8.1171,0,0.0000
8.1214,0,0.0000
8.1257,1007,3.2484
8.1300,1006,3.2452
8.1343,0,0.0000
8.1386,0,0.0000
8.1428,380,1.2258
8.1471,1006,3.2452
8.1514,1006,3.2452
8.1557,0,0.0000
8.1600,0,0.0000
8.1643,1005,3.2419
8.1686,1006,3.2452
8.1729,829,2.6742
8.1772,0,0.0000
8.1815,0,0.0000
8.1858,1007,3.2484
8.1901,1005,3.2419
8.1944,0,0.0000
8.1987,0,0.0000
8.2030,316,1.0194
8.2073,1000,3.2258
8.2115,1005,3.2419
8.2159,0,0.0000
8.2201,0,0.0000
8.2244,1006,3.2452
8.2287,1005,3.2419
8.2330,762,2.4581
8.2373,0,0.0000
8.2416,0,0.0000
8.2459,1006,3.2452
8.2502,1005,3.2419
8.2545,0,0.0000
8.2588,0,0.0000
8.2631,545,1.7581
8.2676,1005,3.2419
8.2719,1005,3.2419
8.2762,0,0.0000
8.2805,0,0.0000
8.2848,1006,3.2452
8.2891,1006,3.2452
8.2933,714,2.3032
8.2976,0,0.0000
8.3019,0,0.0000
8.3062,1007,3.2484
8.3104,1006,3.2452
8.3147,0,0.0000
8.3189,0,0.0000
8.3232,492,1.5871
8.3274,1007,3.2484
8.3317,1006,3.2452
8.3359,0,0.0000
8.3402,0,0.0000
8.3444,1004,3.2387
8.3487,1006,3.2452
8.3530,887,2.8613
8.3572,0,0.0000
8.3615,0,0.0000
8.3657,1006,3.2452
8.3700,1006,3.2452
8.3742,144,0.4645
8.3785,0,0.0000
8.3828,170,0.5484
8.3870,1006,3.2452
8.3913,1006,3.2452
8.3955,0,0.0000
8.3998,0,0.0000
8.4041,998,3.2194
8.4084,1007,3.2484
8.4127,979,3.1581
8.4170,0,0.0000
8.4213,0,0.0000
8.4256,1006,3.2452
8.4298,1006,3.2452
8.4341,230,0.7419
8.4384,0,0.0000
8.4427,173,0.5581
8.4470,1005,3.2419
8.4513,1006,3.2452
8.4556,0,0.0000
8.4599,0,0.0000
8.4642,1003,3.2355
8.4685,1007,3.2484
8.4727,997,3.2161
8.4770,0,0.0000
8.4813,0,0.0000
8.4856,1006,3.2452
8.4899,1004,3.2387
8.4942,266,0.8581
8.4985,0,0.0000
8.5028,218,0.7032
8.5071,1006,3.2452
8.5114,1006,3.2452
8.5157,0,0.0000
8.5200,0,0.0000
8.5243,1004,3.2387
8.5286,1006,3.2452
8.5329,991,3.1968
8.5372,0,0.0000
8.5414,0,0.0000
8.5457,1006,3.2452
8.5500,1007,3.2484
8.5543,215,0.6935
8.5586,0,0.0000
8.5630,234,0.7548
8.5674,1006,3.2452
8.5717,1006,3.2452
8.5760,0,0.0000
8.5803,0,0.0000
8.5846,1005,3.2419
8.5889,1006,3.2452
8.5932,856,2.7613
8.5975,0,0.0000
8.6018,0,0.0000
8.6061,1007,3.2484
8.6103,1006,3.2452
8.6146,12,0.0387
8.6189,0,0.0000
8.6231,232,0.7484
8.6274,1006,3.2452
8.6316,1007,3.2484
8.6359,0,0.0000
8.6402,0,0.0000
8.6444,1002,3.2323
8.6487,1006,3.2452
8.6530,969,3.1258
8.6572,0,0.0000
8.6615,0,0.0000
8.6657,1006,3.2452
8.6700,1005,3.2419
8.6742,330,1.0645
8.6785,0,0.0000
8.6827,101,0.3258
8.6870,1007,3.2484
8.6913,1005,3.2419
8.6955,0,0.0000
8.6998,0,0.0000
8.7040,806,2.6000
8.7083,1006,3.2452
8.7126,1004,3.2387
8.7169,0,0.0000
8.7212,0,0.0000
8.7255,1006,3.2452
8.7298,1006,3.2452
8.7340,509,1.6419
8.7384,0,0.0000
8.7426,48,0.1548
8.7469,1007,3.2484
8.7512,1005,3.2419
8.7555,0,0.0000
8.7598,0,0.0000
8.7641,801,2.5839
8.7684,1006,3.2452
8.7727,1004,3.2387
8.7770,0,0.0000
8.7812,0,0.0000
8.7855,1006,3.2452
8.7898,1005,3.2419
8.7941,460,1.4839
8.7984,0,0.0000
8.8027,1,0.0032
8.8070,1005,3.2419
8.8113,1005,3.2419
8.8156,0,0.0000
8.8199,0,0.0000
8.8242,735,2.3710
8.8284,1006,3.2452
8.8327,1004,3.2387
8.8370,0,0.0000
8.8413,0,0.0000
8.8456,1005,3.2419
8.8499,1006,3.2452
8.8542,445,1.4355
8.8584,0,0.0000
8.8627,41,0.1323
8.8670,1006,3.2452
8.8713,1006,3.2452
8.8756,0,0.0000
8.8799,0,0.0000
8.8842,761,2.4548
8.8885,1006,3.2452
8.8927,1004,3.2387
8.8970,0,0.0000
8.9013,0,0.0000
8.9056,1006,3.2452
8.9099,1005,3.2419
8.9141,550,1.7742
8.9184,0,0.0000
8.9227,8,0.0258
8.9270,1006,3.2452
8.9313,1005,3.2419
8.9356,0,0.0000
8.9399,0,0.0000
8.9441,775,2.5000
8.9484,1007,3.2484
8.9527,1004,3.2387
8.9570,0,0.0000
8.9613,0,0.0000
8.9656,1007,3.2484
8.9699,1005,3.2419
8.9742,498,1.6065
8.9785,0,0.0000
8.9828,44,0.1419
8.9871,1006,3.2452
8.9914,1006,3.2452
8.9957,0,0.0000
9.0000,0,0.0000
9.0043,765,2.4677
9.0086,1007,3.2484
9.0128,1004,3.2387
9.0171,0,0.0000
9.0214,0,0.0000
9.0257,1006,3.2452
9.0300,1006,3.2452
9.0343,490,1.5806
9.0386,0,0.0000
9.0429,0,0.0000
9.0471,1007,3.2484
9.0514,1006,3.2452
9.0557,0,0.0000
9.0600,0,0.0000
9.0642,675,2.1774
9.0685,1006,3.2452
9.0728,1004,3.2387
9.0771,0,0.0000
9.0814,0,0.0000
9.0856,1007,3.2484
9.0899,1005,3.2419
9.0942,568,1.8323
9.0985,0,0.0000
9.1028,0,0.0000
9.1071,1006,3.2452
9.1114,1007,3.2484
9.1157,0,0.0000
9.1200,0,0.0000
9.1243,774,2.4968
9.1285,1007,3.2484
9.1328,1005,3.2419
9.1371,0,0.0000
9.1414,0,0.0000
9.1457,1006,3.2452
9.1499,1007,3.2484
9.1542,603,1.9452
9.1585,0,0.0000
9.1632,138,0.4452
9.1676,1006,3.2452
9.1719,1006,3.2452
9.1762,0,0.0000
9.1805,0,0.0000
9.1848,981,3.1645
9.1891,1006,3.2452
9.1933,991,3.1968
9.1976,0,0.0000
9.2019,0,0.0000
9.2062,1007,3.2484
9.2104,1006,3.2452
9.2147,304,0.9806
9.2190,0,0.0000
9.2233,91,0.2935
9.2275,1006,3.2452
9.2318,1007,3.2484
9.2360,0,0.0000
9.2403,0,0.0000
9.2445,764,2.4645
9.2488,1005,3.2419
9.2531,1003,3.2355
9.2573,0,0.0000
9.2616,0,0.0000
9.2658,1006,3.2452
9.2701,1005,3.2419
9.2744,548,1.7677
9.2786,0,0.0000
9.2829,0,0.0000
9.2872,1007,3.2484
9.2914,1007,3.2484
9.2957,0,0.0000
9.2999,0,0.0000
9.3042,566,1.8258
9.3085,1007,3.2484
9.3128,1005,3.2419
9.3171,0,0.0000
9.3214,0,0.0000
9.3257,1006,3.2452
9.3300,1006,3.2452
9.3343,688,2.2194
9.3386,0,0.0000
9.3428,0,0.0000
9.3471,1006,3.2452
9.3514,1005,3.2419
9.3557,0,0.0000
9.3600,0,0.0000
9.3643,587,1.8935
9.3686,1006,3.2452
9.3729,1005,3.2419
9.3772,0,0.0000
9.3814,0,0.0000
9.3857,1007,3.2484
9.3900,1006,3.2452
9.3943,670,2.1613
9.3986,0,0.0000
9.4029,0,0.0000
9.4072,1006,3.2452
9.4115,1005,3.2419
9.4158,0,0.0000
9.4201,0,0.0000
9.4244,566,1.8258
9.4286,1006,3.2452
9.4330,1004,3.2387
9.4373,0,0.0000
9.4417,0,0.0000
9.4460,1006,3.2452
9.4504,1006,3.2452
9.4549,318,1.0258
9.4595,0,0.0000
9.4639,279,0.9000
9.4684,1006,3.2452
9.4727,1005,3.2419
9.4770,0,0.0000
9.4813,0,0.0000
9.4856,1006,3.2452
9.4899,1005,3.2419
9.4941,798,2.5742
9.4984,0,0.0000
9.5027,0,0.0000
9.5070,1002,3.2323
9.5113,1006,3.2452
9.5156,0,0.0000
9.5199,0,0.0000
9.5241,333,1.0742
9.5287,1006,3.2452
9.5329,1006,3.2452
9.5371,0,0.0000
9.5414,0,0.0000
9.5456,1006,3.2452
9.5499,1005,3.2419
9.5541,841,2.7129
9.5583,0,0.0000
9.5626,0,0.0000
9.5668,1006,3.2452
9.5710,1006,3.2452
9.5753,195,0.6290
9.5795,0,0.0000
9.5837,158,0.5097
9.5879,1005,3.2419
9.5922,1005,3.2419
9.5964,0,0.0000
9.6006,0,0.0000
9.6049,807,2.6032
9.6091,1006,3.2452
9.6133,1004,3.2387
9.6176,0,0.0000
9.6218,0,0.0000
9.6261,1006,3.2452
9.6304,1007,3.2484
9.6347,545,1.7581
9.6390,0,0.0000
9.6432,0,0.0000
9.6475,1006,3.2452
9.6518,1006,3.2452
9.6561,0,0.0000
9.6603,0,0.0000
9.6646,617,1.9903
9.6690,1006,3.2452
9.6732,1005,3.2419
9.6775,0,0.0000
9.6818,0,0.0000
9.6861,1006,3.2452
9.6903,1006,3.2452
9.6946,633,2.0419
9.6989,0,0.0000
9.7032,0,0.0000
9.7075,1006,3.2452
9.7118,1006,3.2452
9.7161,0,0.0000
9.7204,0,0.0000
9.7247,610,1.9677
9.7290,1006,3.2452
9.7333,1005,3.2419
9.7376,0,0.0000
9.7418,0,0.0000
9.7461,1006,3.2452
9.7504,1006,3.2452
9.7547,631,2.0355
9.7590,0,0.0000
9.7633,0,0.0000
9.7676,1005,3.2419
9.7718,1007,3.2484
9.7761,0,0.0000
9.7804,0,0.0000
9.7847,605,1.9516
9.7890,1006,3.2452
9.7933,1004,3.2387
9.7976,0,0.0000
9.8019,0,0.0000
9.8062,1006,3.2452
9.8105,1006,3.2452
9.8148,630,2.0323
9.8191,0,0.0000
9.8234,0,0.0000
9.8276,1006,3.2452
9.8319,1006,3.2452
9.8362,0,0.0000
9.8405,0,0.0000
9.8448,563,1.8161
9.8491,1005,3.2419
9.8533,1005,3.2419
9.8576,0,0.0000
9.8619,0,0.0000
9.8662,1007,3.2484
9.8705,1005,3.2419
9.8748,632,2.0387
9.8791,0,0.0000
9.8833,0,0.0000
9.8876,1006,3.2452
9.8919,1006,3.2452
9.8962,0,0.0000
9.9005,0,0.0000
9.9048,542,1.7484
9.9091,1006,3.2452
9.9133,1004,3.2387
9.9177,0,0.0000
9.9220,0,0.0000
9.9263,1006,3.2452
9.9305,1006,3.2452
9.9348,606,1.9548
9.9391,0,0.0000
9.9434,0,0.0000
9.9476,1006,3.2452
9.9519,1005,3.2419
9.9562,0,0.0000
9.9605,0,0.0000
9.9648,571,1.8419
9.9691,1006,3.2452
9.9734,1005,3.2419
9.9777,0,0.0000
9.9819,0,0.0000
9.9862,1006,3.2452
9.9905,1006,3.2452
9.9948,705,2.2742
9.9991,0,0.0000
