time_s,adc_raw,voltage
0.0000,327,1.0548
0.0044,472,1.5226
0.0088,737,2.3774
0.0131,703,2.2677
0.0175,402,1.2968
0.0218,321,1.0355
0.0262,597,1.9258
0.0309,756,2.4387
0.0360,489,1.5774
0.0404,291,0.9387
0.0447,473,1.5258
0.0491,725,2.3387
0.0535,657,2.1194
0.0579,355,1.1452
0.0622,312,1.0065
0.0666,578,1.8645
0.0710,695,2.2419
0.0754,459,1.4806
0.0798,227,0.7323
0.0843,374,1.2065
0.0889,648,2.0903
0.0935,586,1.8903
0.0983,275,0.8871
0.1029,279,0.9000
0.1074,567,1.8290
0.1118,627,2.0226
0.1164,334,1.0774
0.1212,184,0.5935
0.1259,450,1.4516
0.1306,618,1.9935
0.1349,423,1.3645
0.1392,169,0.5452
0.1433,238,0.7677
0.1475,521,1.6806
0.1519,582,1.8774
0.1562,324,1.0452
0.1604,153,0.4935
0.1645,333,1.0742
0.1687,588,1.8968
0.1729,555,1.7903
0.1771,281,0.9065
0.1813,182,0.5871
0.1855,426,1.3742
0.1896,654,2.1097
0.1938,576,1.8581
0.1980,335,1.0806
0.2022,359,1.1581
0.2064,692,2.2323
0.2105,924,2.9806
0.2147,833,2.6871
0.2189,629,2.0290
0.2231,638,2.0581
0.2272,751,2.4226
0.2314,678,2.1871
0.2356,397,1.2806
0.2398,205,0.6613
0.2440,362,1.1677
0.2481,651,2.1000
0.2523,677,2.1839
0.2565,417,1.3452
0.2607,282,0.9097
0.2649,486,1.5677
0.2690,716,2.3097
0.2732,652,2.1032
0.2774,375,1.2097
0.2816,311,1.0032
0.2858,569,1.8355
0.2900,746,2.4065
0.2942,605,1.9516
0.2983,341,1.1000
0.3025,365,1.1774
0.3067,641,2.0677
0.3109,756,2.4387
0.3151,548,1.7677
0.3193,317,1.0226
0.3234,413,1.3323
0.3276,687,2.2161
0.3318,733,2.3645
0.3360,480,1.5484
0.3401,308,0.9935
0.3443,476,1.5355
0.3485,725,2.3387
0.3527,699,2.2548
0.3569,418,1.3484
0.3610,311,1.0032
0.3652,543,1.7516
0.3694,749,2.4161
0.3737,640,2.0645
0.3779,366,1.1806
0.3821,352,1.1355
0.3862,624,2.0129
0.3904,766,2.4710
0.3946,586,1.8903
0.3988,340,1.0968
0.4030,407,1.3129
0.4072,689,2.2226
0.4113,767,2.4742
0.4155,533,1.7194
0.4197,338,1.0903
0.4239,485,1.5645
0.4280,749,2.4161
0.4322,753,2.4290
0.4364,483,1.5581
0.4406,351,1.1323
0.4447,563,1.8161
0.4489,794,2.5613
0.4532,712,2.2968
0.4575,425,1.3710
0.4617,384,1.2387
0.4659,650,2.0968
0.4701,808,2.6065
0.4743,638,2.0581
0.4785,374,1.2065
0.4827,414,1.3355
0.4868,686,2.2129
0.4910,773,2.4935
0.4952,540,1.7419
0.4994,324,1.0452
0.5036,448,1.4452
0.5078,713,2.3000
0.5119,727,2.3452
0.5161,455,1.4677
0.5203,305,0.9839
0.5245,500,1.6129
0.5286,736,2.3742
0.5328,680,2.1935
0.5370,395,1.2742
0.5412,318,1.0258
0.5454,564,1.8194
0.5496,749,2.4161
0.5537,614,1.9806
0.5579,344,1.1097
0.5621,353,1.1387
0.5663,626,2.0194
0.5705,755,2.4355
0.5746,555,1.7903
0.5788,315,1.0161
0.5830,401,1.2935
0.5872,676,2.1806
0.5913,736,2.3742
0.5955,485,1.5645
0.5997,299,0.9645
0.6039,467,1.5065
0.6081,723,2.3323
0.6123,707,2.2806
0.6165,427,1.3774
0.6207,319,1.0290
0.6250,561,1.8097
0.6292,766,2.4710
0.6335,641,2.0677
0.6378,361,1.1645
0.6421,373,1.2032
0.6463,660,2.1290
0.6506,777,2.5065
0.6549,559,1.8032
0.6591,339,1.0935
0.6634,472,1.5226
0.6677,743,2.3968
0.6719,751,2.4226
0.6762,475,1.5323
0.6804,347,1.1194
0.6847,580,1.8710
0.6890,801,2.5839
0.6932,695,2.2419
0.6975,399,1.2871
0.7018,372,1.2000
0.7061,648,2.0903
0.7103,781,2.5194
0.7146,570,1.8387
0.7188,324,1.0452
0.7232,441,1.4226
0.7275,728,2.3484
0.7319,737,2.3774
0.7362,439,1.4161
0.7405,299,0.9645
0.7449,541,1.7452
0.7492,754,2.4323
0.7535,619,1.9968
0.7578,321,1.0355
0.7622,343,1.1065
0.7665,643,2.0742
0.7708,743,2.3968
0.7751,489,1.5774
0.7795,281,0.9065
0.7838,455,1.4677
0.7881,724,2.3355
0.7925,677,2.1839
0.7968,370,1.1935
0.8011,297,0.9581
0.8055,579,1.8677
0.8098,751,2.4226
0.8142,562,1.8129
0.8186,291,0.9387
0.8229,394,1.2710
0.8272,691,2.2290
0.8315,720,2.3226
0.8358,431,1.3903
0.8401,275,0.8871
0.8444,505,1.6290
0.8487,744,2.4000
0.8530,646,2.0839
0.8573,338,1.0903
0.8616,319,1.0290
0.8659,625,2.0161
0.8702,772,2.4903
0.8745,552,1.7806
0.8788,298,0.9613
0.8831,414,1.3355
0.8874,710,2.2903
0.8916,723,2.3323
0.8960,428,1.3806
0.9002,281,0.9065
0.9045,519,1.6742
0.9089,744,2.4000
0.9132,621,2.0032
0.9174,316,1.0194
0.9218,318,1.0258
0.9261,625,2.0161
0.9305,736,2.3742
0.9348,487,1.5710
0.9391,259,0.8355
0.9434,425,1.3710
0.9478,714,2.3032
0.9521,684,2.2065
0.9564,368,1.1871
0.9607,270,0.8710
0.9651,563,1.8161
0.9694,780,2.5161
0.9737,633,2.0419
0.9781,392,1.2645
0.9824,526,1.6968
0.9867,917,2.9581
0.9910,999,3.2226
0.9954,781,2.5194
0.9997,458,1.4774
1.0041,474,1.5290
1.0084,628,2.0258
1.0127,534,1.7226
1.0171,240,0.7742
1.0214,228,0.7355
1.0257,549,1.7710
1.0300,711,2.2935
1.0343,487,1.5710
1.0386,226,0.7290
1.0429,346,1.1161
1.0472,645,2.0806
1.0516,651,2.1000
1.0561,335,1.0806
1.0605,221,0.7129
1.0648,490,1.5806
1.0691,694,2.2387
1.0734,538,1.7355
1.0777,243,0.7839
1.0820,288,0.9290
1.0863,602,1.9419
1.0906,697,2.2484
1.0949,432,1.3935
1.0992,219,0.7065
1.1035,406,1.3097
1.1078,686,2.2129
1.1121,646,2.0839
1.1164,335,1.0806
1.1207,249,0.8032
1.1250,531,1.7129
1.1293,722,2.3290
1.1336,551,1.7774
1.1378,268,0.8645
1.1421,332,1.0710
1.1464,648,2.0903
1.1507,727,2.3452
1.1550,451,1.4548
1.1593,255,0.8226
1.1636,458,1.4774
1.1679,738,2.3806
1.1722,688,2.2194
1.1765,379,1.2226
1.1808,314,1.0129
1.1851,606,1.9548
1.1893,790,2.5484
1.1936,605,1.9516
1.1979,325,1.0484
1.2022,404,1.3032
1.2065,713,2.3000
1.2108,779,2.5129
1.2151,497,1.6032
1.2194,307,0.9903
1.2237,518,1.6710
1.2281,784,2.5290
1.2324,708,2.2839
1.2367,391,1.2613
1.2411,354,1.1419
1.2454,652,2.1032
1.2497,801,2.5839
1.2540,577,1.8613
1.2584,310,1.0000
1.2627,430,1.3871
1.2670,721,2.3258
1.2713,729,2.3516
1.2757,416,1.3419
1.2800,280,0.9032
1.2844,537,1.7323
1.2887,751,2.4226
1.2930,608,1.9613
1.2973,303,0.9774
1.3017,332,1.0710
1.3060,640,2.0645
1.3104,729,2.3516
1.3147,461,1.4871
1.3191,251,0.8097
1.3234,444,1.4323
1.3277,716,2.3097
1.3320,659,2.1258
1.3363,343,1.1065
1.3406,268,0.8645
1.3449,557,1.7968
1.3492,732,2.3613
1.3538,518,1.6710
1.3583,252,0.8129
1.3627,388,1.2516
1.3670,687,2.2161
1.3713,695,2.2419
1.3755,388,1.2516
1.3800,253,0.8161
1.3843,517,1.6677
1.3886,737,2.3774
1.3929,599,1.9323
1.3972,298,0.9613
1.4016,326,1.0516
1.4059,636,2.0516
1.4102,732,2.3613
1.4145,469,1.5129
1.4188,252,0.8129
1.4231,431,1.3903
1.4274,707,2.2806
1.4317,667,2.1516
1.4360,352,1.1355
1.4403,265,0.8548
1.4446,545,1.7581
1.4489,741,2.3903
1.4532,573,1.8484
1.4575,280,0.9032
1.4618,339,1.0935
1.4661,650,2.0968
1.4704,728,2.3484
1.4747,452,1.4581
1.4790,247,0.7968
1.4833,445,1.4355
1.4875,713,2.3000
1.4918,656,2.1161
1.4961,343,1.1065
1.5004,270,0.8710
1.5047,560,1.8065
1.5090,739,2.3839
1.5133,548,1.7677
1.5176,266,0.8581
1.5219,346,1.1161
1.5262,655,2.1129
1.5305,709,2.2871
1.5348,418,1.3484
1.5391,235,0.7581
1.5434,451,1.4548
1.5477,703,2.2677
1.5520,621,2.0032
1.5563,308,0.9935
1.5606,259,0.8355
1.5649,564,1.8194
1.5692,728,2.3484
1.5735,518,1.6710
1.5778,246,0.7935
1.5821,355,1.1452
1.5864,673,2.1710
1.5907,712,2.2968
1.5950,423,1.3645
1.5993,257,0.8290
1.6036,484,1.5613
1.6079,722,2.3290
1.6122,617,1.9903
1.6165,308,0.9935
1.6208,281,0.9065
1.6251,575,1.8548
1.6294,710,2.2903
1.6337,485,1.5645
1.6380,229,0.7387
1.6423,351,1.1323
1.6466,649,2.0935
1.6509,668,2.1548
1.6552,366,1.1806
1.6594,223,0.7194
1.6638,477,1.5387
1.6681,705,2.2742
1.6724,579,1.8677
1.6767,273,0.8806
1.6810,280,0.9032
1.6853,600,1.9355
1.6896,741,2.3903
1.6938,540,1.7419
1.6981,360,1.1613
1.7024,592,1.9097
1.7067,962,3.1032
1.7110,986,3.1806
1.7153,641,2.0677
1.7197,324,1.0452
1.7240,427,1.3774
1.7283,595,1.9194
1.7325,465,1.5000
1.7368,192,0.6194
1.7411,236,0.7613
1.7454,561,1.8097
1.7497,674,2.1742
1.7540,424,1.3677
1.7583,198,0.6387
1.7626,363,1.1710
1.7669,646,2.0839
1.7712,620,2.0000
1.7755,316,1.0194
1.7798,214,0.6903
1.7840,491,1.5839
1.7884,697,2.2484
1.7926,541,1.7452
1.7969,251,0.8097
1.8012,293,0.9452
1.8055,601,1.9387
1.8098,683,2.2032
1.8141,410,1.3226
1.8184,203,0.6548
1.8227,391,1.2613
1.8270,670,2.1613
1.8313,622,2.0065
1.8356,307,0.9903
1.8399,226,0.7290
1.8446,542,1.7484
1.8489,702,2.2645
1.8532,484,1.5613
1.8575,222,0.7161
1.8618,330,1.0645
1.8661,637,2.0548
1.8704,667,2.1516
1.8747,371,1.1968
1.8790,218,0.7032
1.8833,457,1.4742
1.8876,702,2.2645
1.8919,596,1.9226
1.8962,286,0.9226
1.9005,269,0.8677
1.9048,575,1.8548
1.9091,716,2.3097
1.9134,483,1.5581
1.9177,234,0.7548
1.9220,371,1.1968
1.9263,675,2.1774
1.9306,690,2.2258
1.9349,384,1.2387
1.9392,240,0.7742
1.9435,499,1.6097
1.9478,729,2.3516
1.9522,587,1.8935
1.9566,278,0.8968
1.9610,320,1.0323
1.9654,637,2.0548
1.9697,723,2.3323
1.9740,450,1.4516
1.9783,235,0.7581
1.9826,422,1.3613
1.9868,699,2.2548
1.9912,644,2.0774
1.9955,320,1.0323
1.9998,231,0.7452
2.0041,514,1.6581
2.0084,704,2.2710
2.0127,518,1.6710
2.0170,228,0.7355
2.0213,294,0.9484
2.0256,614,1.9806
2.0299,684,2.2065
2.0342,395,1.2742
2.0384,198,0.6387
2.0427,405,1.3065
2.0470,677,2.1839
2.0513,609,1.9645
2.0556,291,0.9387
2.0599,230,0.7419
2.0642,531,1.7129
2.0685,707,2.2806
2.0729,508,1.6387
2.0771,233,0.7516
2.0814,328,1.0581
2.0859,655,2.1129
2.0902,697,2.2484
2.0945,400,1.2903
2.0988,237,0.7645
2.1031,477,1.5387
2.1073,730,2.3548
2.1116,630,2.0323
2.1160,311,1.0032
2.1203,291,0.9387
2.1246,596,1.9226
2.1289,737,2.3774
2.1332,501,1.6161
2.1375,239,0.7710
2.1418,366,1.1806
2.1461,669,2.1581
2.1503,682,2.2000
2.1546,373,1.2032
2.1589,228,0.7355
2.1632,481,1.5516
2.1675,716,2.3097
2.1718,592,1.9097
2.1761,276,0.8903
2.1804,273,0.8806
2.1847,588,1.8968
2.1890,721,2.3258
2.1933,476,1.5355
2.1977,232,0.7484
2.2020,392,1.2645
2.2063,694,2.2387
2.2106,684,2.2065
2.2149,367,1.1839
2.2192,251,0.8097
2.2235,530,1.7097
2.2278,747,2.4097
2.2321,598,1.9290
2.2364,297,0.9581
2.2407,329,1.0613
2.2450,645,2.0806
2.2495,740,2.3871
2.2540,449,1.4484
2.2584,263,0.8484
2.2628,494,1.5935
2.2671,750,2.4194
2.2714,656,2.1161
2.2757,338,1.0903
2.2800,306,0.9871
2.2843,614,1.9806
2.2886,767,2.4742
2.2929,544,1.7548
2.2972,277,0.8935
2.3016,414,1.3355
2.3060,721,2.3258
2.3103,727,2.3452
2.3146,412,1.3290
2.3189,285,0.9194
2.3232,555,1.7903
2.3275,786,2.5355
2.3318,653,2.1065
2.3361,342,1.1032
2.3404,353,1.1387
2.3447,658,2.1226
2.3490,774,2.4968
2.3533,517,1.6677
2.3576,280,0.9032
2.3619,445,1.4355
2.3663,737,2.3774
2.3706,714,2.3032
2.3748,397,1.2806
2.3792,291,0.9387
2.3834,570,1.8387
2.3877,779,2.5129
2.3920,624,2.0129
2.3963,320,1.0323
2.4006,361,1.1645
2.4049,675,2.1774
2.4092,770,2.4839
2.4135,505,1.6290
2.4178,303,0.9774
2.4221,518,1.6710
2.4264,834,2.6903
2.4307,846,2.7290
2.4350,597,1.9258
2.4393,594,1.9161
2.4436,951,3.0677
2.4479,1003,3.2355
2.4522,908,2.9290
2.4565,461,1.4871
2.4608,350,1.1290
2.4651,608,1.9613
2.4694,692,2.2323
2.4737,442,1.4258
2.4780,275,0.8871
2.4823,501,1.6161
2.4866,776,2.5032
2.4908,711,2.2935
2.4951,388,1.2516
2.4994,327,1.0548
2.5038,623,2.0097
2.5080,797,2.5710
2.5123,600,1.9355
2.5166,313,1.0097
2.5209,398,1.2839
2.5252,709,2.2871
2.5295,760,2.4516
2.5338,462,1.4903
2.5381,275,0.8871
2.5424,495,1.5968
2.5467,751,2.4226
2.5510,667,2.1516
2.5553,344,1.1097
2.5596,298,0.9613
2.5639,600,1.9355
2.5682,757,2.4419
2.5725,543,1.7516
2.5768,273,0.8806
2.5811,387,1.2484
2.5854,695,2.2419
2.5897,721,2.3258
2.5940,420,1.3548
2.5983,261,0.8419
2.6026,503,1.6226
2.6069,744,2.4000
2.6112,630,2.0323
2.6155,314,1.0129
2.6198,296,0.9548
2.6241,608,1.9613
2.6284,751,2.4226
2.6327,517,1.6677
2.6370,259,0.8355
2.6413,391,1.2613
2.6456,694,2.2387
2.6498,714,2.3032
2.6541,413,1.3323
2.6584,267,0.8613
2.6627,518,1.6710
2.6670,754,2.4323
2.6713,638,2.0581
2.6756,325,1.0484
2.6799,325,1.0484
2.6842,635,2.0484
2.6885,763,2.4613
2.6928,523,1.6871
2.6970,272,0.8774
2.7013,417,1.3452
2.7057,711,2.2935
2.7100,704,2.2710
2.7143,387,1.2484
2.7186,255,0.8226
2.7229,514,1.6581
2.7272,724,2.3355
2.7315,575,1.8548
2.7358,266,0.8581
2.7401,296,0.9548
2.7445,606,1.9548
2.7488,700,2.2581
2.7531,434,1.4000
2.7573,212,0.6839
2.7616,391,1.2613
2.7660,678,2.1871
2.7703,644,2.0774
2.7746,332,1.0710
2.7788,236,0.7613
2.7831,521,1.6806
2.7875,721,2.3258
2.7917,549,1.7710
2.7960,251,0.8097
2.8003,307,0.9903
2.8046,625,2.0161
2.8089,709,2.2871
2.8132,439,1.4161
2.8175,238,0.7677
2.8218,435,1.4032
2.8261,711,2.2935
2.8304,653,2.1065
2.8347,335,1.0806
2.8390,260,0.8387
2.8433,553,1.7839
2.8476,741,2.3903
2.8521,542,1.7484
2.8564,259,0.8355
2.8609,365,1.1774
2.8652,672,2.1677
2.8695,704,2.2710
2.8738,411,1.3258
2.8781,259,0.8355
2.8824,498,1.6065
2.8867,736,2.3742
2.8910,628,2.0258
2.8953,323,1.0419
2.8996,310,1.0000
2.9039,621,2.0032
2.9082,763,2.4613
2.9125,535,1.7258
2.9168,284,0.9161
2.9211,424,1.3677
2.9254,716,2.3097
2.9297,726,2.3419
2.9340,427,1.3774
2.9383,292,0.9419
2.9426,548,1.7677
2.9469,782,2.5226
2.9512,661,2.1323
2.9555,345,1.1129
2.9598,336,1.0839
2.9641,645,2.0806
2.9684,778,2.5097
2.9728,545,1.7581
2.9770,305,0.9839
2.9813,453,1.4613
2.9856,754,2.4323
2.9899,780,2.5161
2.9942,506,1.6323
2.9985,377,1.2161
3.0028,632,2.0387
3.0071,858,2.7677
3.0114,738,2.3806
3.0157,420,1.3548
3.0200,397,1.2806
3.0243,689,2.2226
3.0286,828,2.6710
3.0329,601,1.9387
3.0372,330,1.0645
3.0415,450,1.4516
3.0457,746,2.4065
3.0501,764,2.4645
3.0544,453,1.4613
3.0587,301,0.9710
3.0630,554,1.7871
3.0672,791,2.5516
3.0716,669,2.1581
3.0759,345,1.1129
3.0802,346,1.1161
3.0845,661,2.1323
3.0888,790,2.5484
3.0931,537,1.7323
3.0973,278,0.8968
3.1016,425,1.3710
3.1060,720,2.3226
3.1102,718,2.3161
3.1146,399,1.2871
3.1189,267,0.8613
3.1232,529,1.7065
3.1274,749,2.4161
3.1317,607,1.9581
3.1360,286,0.9226
3.1403,303,0.9774
3.1446,617,1.9903
3.1489,732,2.3613
3.1533,463,1.4935
3.1577,232,0.7484
3.1621,431,1.3903
3.1664,715,2.3065
3.1707,664,2.1419
3.1750,331,1.0677
3.1793,262,0.8452
3.1836,581,1.8742
3.1879,790,2.5484
3.1922,637,2.0548
3.1965,397,1.2806
3.2008,556,1.7935
3.2051,953,3.0742
3.2094,1001,3.2290
3.2138,766,2.4710
3.2181,398,1.2839
3.2224,422,1.3613
3.2267,603,1.9452
3.2310,527,1.7000
3.2353,226,0.7290
3.2396,197,0.6355
3.2439,521,1.6806
3.2482,697,2.2484
3.2525,485,1.5645
3.2568,198,0.6387
3.2611,306,0.9871
3.2653,619,1.9968
3.2696,663,2.1387
3.2739,361,1.1645
3.2783,190,0.6129
3.2825,434,1.4000
3.2868,688,2.2194
3.2911,590,1.9032
3.2954,266,0.8581
3.2997,243,0.7839
3.3040,559,1.8032
3.3083,711,2.2935
3.3126,480,1.5484
3.3169,213,0.6871
3.3212,353,1.1387
3.3255,665,2.1452
3.3298,685,2.2097
3.3341,371,1.1968
3.3384,219,0.7065
3.3427,477,1.5387
3.3470,713,2.3000
3.3513,591,1.9065
3.3556,269,0.8677
3.3599,270,0.8710
3.3642,591,1.9065
3.3685,725,2.3387
3.3728,469,1.5129
3.3772,220,0.7097
3.3814,390,1.2581
3.3857,693,2.2355
3.3900,685,2.2097
3.3943,360,1.1613
3.3986,234,0.7548
3.4029,521,1.6806
3.4072,746,2.4065
3.4115,593,1.9129
3.4158,276,0.8903
3.4201,316,1.0194
3.4244,646,2.0839
3.4287,749,2.4161
3.4330,475,1.5323
3.4373,240,0.7742
3.4416,434,1.4000
3.4460,732,2.3613
3.4502,703,2.2677
3.4545,375,1.2097
3.4588,280,0.9032
3.4631,578,1.8645
3.4674,784,2.5290
3.4717,609,1.9645
3.4760,298,0.9613
3.4803,356,1.1484
3.4846,672,2.1677
3.4889,750,2.4194
3.4932,457,1.4742
3.4975,234,0.7548
3.5019,456,1.4710
3.5062,725,2.3387
3.5104,661,2.1323
3.5147,329,1.0613
3.5190,251,0.8097
3.5233,552,1.7806
3.5275,736,2.3742
3.5318,549,1.7710
3.5361,267,0.8613
3.5403,350,1.1290
3.5446,671,2.1645
3.5488,753,2.4290
3.5530,483,1.5581
3.5573,273,0.8806
3.5616,472,1.5226
3.5658,751,2.4226
3.5702,718,2.3161
3.5745,408,1.3161
3.5788,341,1.1000
3.5831,649,2.0935
3.5874,860,2.7742
3.5917,664,2.1419
3.5960,374,1.2065
3.6003,479,1.5452
3.6046,833,2.6871
3.6089,915,2.9516
3.6132,631,2.0355
3.6174,452,1.4581
3.6218,703,2.2677
3.6261,976,3.1484
3.6303,901,2.9065
3.6347,571,1.8419
3.6389,509,1.6419
3.6433,806,2.6000
3.6475,975,3.1452
3.6518,756,2.4387
3.6561,460,1.4839
3.6604,557,1.7968
3.6647,878,2.8323
3.6690,942,3.0387
3.6733,659,2.1258
3.6776,492,1.5871
3.6818,738,2.3806
3.6861,995,3.2097
3.6904,918,2.9613
3.6946,594,1.9161
3.6990,548,1.7677
3.7037,897,2.8935
3.7079,998,3.2194
3.7122,823,2.6548
3.7164,563,1.8161
3.7207,689,2.2226
3.7254,983,3.1710
3.7296,945,3.0484
3.7339,624,2.0129
3.7382,504,1.6258
3.7424,768,2.4774
3.7467,979,3.1581
3.7511,805,2.5968
3.7555,483,1.5581
3.7599,555,1.7903
3.7642,874,2.8194
3.7685,955,3.0806
3.7728,675,2.1774
3.7770,459,1.4806
3.7813,663,2.1387
3.7856,918,2.9613
3.7899,840,2.7097
3.7941,524,1.6903
3.7984,472,1.5226
3.8027,781,2.5194
3.8069,969,3.1258
3.8112,781,2.5194
3.8154,485,1.5645
3.8197,546,1.7613
3.8239,848,2.7355
3.8282,904,2.9161
3.8325,589,1.9000
3.8367,336,1.0839
3.8410,489,1.5774
3.8453,718,2.3161
3.8495,637,2.0548
3.8538,304,0.9806
3.8580,205,0.6613
3.8623,479,1.5452
3.8665,658,2.1226
3.8708,451,1.4548
3.8750,120,0.3871
3.8793,145,0.4677
3.8836,450,1.4516
3.8879,526,1.6968
3.8922,252,0.8129
3.8965,55,0.1774
3.9008,270,0.8710
3.9051,576,1.8581
3.9094,543,1.7516
3.9137,245,0.7903
3.9179,186,0.6000
3.9222,497,1.6032
3.9266,717,2.3129
3.9309,580,1.8710
3.9352,380,1.2258
3.9394,537,1.7323
3.9437,865,2.7903
3.9481,796,2.5677
3.9524,292,0.9419
3.9566,0,0.0000
3.9609,197,0.6355
3.9652,487,1.5710
3.9695,427,1.3774
3.9738,117,0.3774
3.9780,79,0.2548
3.9824,395,1.2742
3.9866,560,1.8065
3.9909,343,1.1065
3.9952,60,0.1935
3.9995,162,0.5226
4.0038,482,1.5548
4.0080,525,1.6935
4.0124,221,0.7129
4.0166,40,0.1290
4.0209,280,0.9032
4.0252,546,1.7613
4.0295,448,1.4452
4.0338,123,0.3968
4.0381,84,0.2710
4.0423,398,1.2839
4.0466,562,1.8129
4.0510,328,1.0581
4.0554,48,0.1548
4.0598,185,0.5968
4.0642,501,1.6161
4.0685,502,1.6194
4.0729,175,0.5645
4.0771,42,0.1355
4.0814,311,1.0032
4.0856,547,1.7645
4.0899,409,1.3194
4.0941,93,0.3000
4.0984,89,0.2871
4.1026,409,1.3194
4.1069,549,1.7710
4.1111,308,0.9935
4.1154,49,0.1581
4.1196,180,0.5806
4.1239,498,1.6065
4.1281,530,1.7097
4.1324,225,0.7258
4.1367,65,0.2097
4.1409,310,1.0000
4.1452,574,1.8516
4.1494,480,1.5484
4.1537,162,0.5226
4.1580,129,0.4161
4.1622,443,1.4290
4.1665,612,1.9742
4.1707,395,1.2742
4.1750,114,0.3677
4.1794,224,0.7226
4.1836,549,1.7710
4.1879,596,1.9226
4.1922,298,0.9613
4.1965,123,0.3968
4.2008,361,1.1645
4.2050,620,2.0000
4.2093,528,1.7032
4.2137,192,0.6194
4.2180,152,0.4903
4.2222,466,1.5032
4.2265,626,2.0194
4.2308,398,1.2839
4.2351,120,0.3871
4.2394,227,0.7323
4.2436,540,1.7419
4.2479,571,1.8419
4.2522,262,0.8452
4.2565,90,0.2903
4.2608,336,1.0839
4.2651,595,1.9194
4.2693,492,1.5871
4.2736,168,0.5419
4.2779,139,0.4484
4.2822,460,1.4839
4.2864,614,1.9806
4.2907,388,1.2516
4.2950,112,0.3613
4.2992,218,0.7032
4.3035,543,1.7516
4.3078,590,1.9032
4.3120,291,0.9387
4.3163,114,0.3677
4.3206,347,1.1194
4.3249,614,1.9806
4.3291,528,1.7032
4.3334,204,0.6581
4.3376,151,0.4871
4.3419,457,1.4742
4.3461,640,2.0645
4.3504,448,1.4452
4.3546,160,0.5161
4.3589,236,0.7613
4.3631,562,1.8129
4.3674,642,2.0710
4.3717,356,1.1484
4.3759,147,0.4742
4.3802,348,1.1226
4.3845,638,2.0581
4.3888,594,1.9161
4.3931,270,0.8710
4.3974,193,0.6226
4.4017,496,1.6000
4.4060,684,2.2065
4.4103,498,1.6065
4.4146,193,0.6226
4.4189,257,0.8290
4.4232,576,1.8581
4.4275,634,2.0452
4.4318,330,1.0645
4.4361,100,0.3226
4.4404,302,0.9742
4.4447,577,1.8613
4.4490,500,1.6129
4.4533,159,0.5129
4.4576,79,0.2548
4.4619,384,1.2387
4.4662,582,1.8774
4.4705,403,1.3000
4.4748,108,0.3484
4.4792,193,0.6226
4.4835,510,1.6452
4.4877,577,1.8613
4.4920,305,0.9839
4.4962,108,0.3484
4.5005,309,0.9968
4.5047,572,1.8452
4.5090,516,1.6645
4.5132,216,0.6968
4.5175,139,0.4484
4.5218,420,1.3548
4.5260,597,1.9258
4.5303,420,1.3548
4.5346,125,0.4032
4.5388,180,0.5806
4.5431,496,1.6000
4.5474,570,1.8387
4.5517,280,0.9032
4.5560,58,0.1871
4.5603,253,0.8161
4.5646,525,1.6935
4.5688,426,1.3742
4.5731,102,0.3290
4.5773,40,0.1290
4.5816,365,1.1774
4.5859,604,1.9484
4.5902,459,1.4806
4.5945,175,0.5645
4.5988,234,0.7548
4.6031,556,1.7935
4.6074,663,2.1387
4.6117,422,1.3613
4.6160,248,0.8000
4.6203,490,1.5806
4.6246,827,2.6677
4.6289,867,2.7968
4.6332,627,2.0226
4.6375,576,1.8581
4.6418,757,2.4419
4.6461,752,2.4258
4.6505,434,1.4000
4.6549,144,0.4645
4.6593,278,0.8968
4.6637,610,1.9677
4.6680,656,2.1161
4.6723,377,1.2161
4.6765,225,0.7258
4.6808,467,1.5065
4.6851,710,2.2903
4.6894,611,1.9710
4.6936,303,0.9774
4.6979,281,0.9065
4.7022,588,1.8968
4.7065,739,2.3839
4.7108,525,1.6935
4.7150,264,0.8516
4.7193,378,1.2194
4.7235,684,2.2065
4.7278,722,2.3290
4.7321,432,1.3935
4.7363,268,0.8645
4.7406,499,1.6097
4.7449,750,2.4194
4.7491,665,2.1452
4.7534,352,1.1355
4.7577,312,1.0065
4.7620,613,1.9774
4.7663,775,2.5000
4.7705,567,1.8290
4.7748,294,0.9484
4.7791,402,1.2968
4.7834,717,2.3129
4.7877,762,2.4581
4.7920,467,1.5065
4.7963,293,0.9452
4.8006,537,1.7323
4.8049,793,2.5581
4.8092,696,2.2452
4.8135,381,1.2290
4.8178,358,1.1548
4.8221,669,2.1581
4.8264,818,2.6387
4.8307,593,1.9129
4.8349,333,1.0742
4.8393,469,1.5129
4.8436,781,2.5194
4.8479,804,2.5935
4.8522,501,1.6161
4.8565,356,1.1484
4.8608,619,1.9968
4.8651,863,2.7839
4.8694,749,2.4161
4.8737,428,1.3806
4.8780,412,1.3290
4.8823,698,2.2516
4.8866,801,2.5839
4.8909,544,1.7548
4.8952,280,0.9032
4.8996,427,1.3774
4.9039,713,2.3000
4.9082,693,2.2355
4.9125,370,1.1935
4.9168,240,0.7742
4.9210,501,1.6161
4.9253,714,2.3032
4.9296,565,1.8226
4.9339,252,0.8129
4.9382,274,0.8839
4.9426,582,1.8774
4.9469,689,2.2226
4.9541,258,0.8323
4.9585,321,1.0355
4.9629,637,2.0548
4.9672,719,2.3194
4.9715,450,1.4516
4.9758,259,0.8355
4.9801,479,1.5452
4.9844,756,2.4387
4.9887,708,2.2839
4.9930,399,1.2871
4.9973,338,1.0903
5.0015,635,2.0484
5.0067,819,2.6419
5.0112,551,1.7774
5.0157,325,1.0484
5.0202,539,1.7387
5.0310,552,1.7806
5.0355,319,1.0290
5.0399,518,1.6710
5.0441,794,2.5613
5.0484,756,2.4387
5.0527,437,1.4097
5.0569,341,1.1000
5.0612,622,2.0065
5.0654,823,2.6548
5.0697,665,2.1452
5.0739,364,1.1742
5.0782,404,1.3032
5.0825,716,2.3097
5.0868,809,2.6097
5.0910,549,1.7710
5.0953,315,1.0161
5.0995,482,1.5548
5.1038,769,2.4806
5.1080,758,2.4452
5.1122,445,1.4355
5.1165,308,0.9935
5.1207,565,1.8226
5.1249,790,2.5484
5.1292,663,2.1387
5.1334,348,1.1226
5.1376,338,1.0903
5.1419,636,2.0516
5.1461,775,2.5000
5.1504,541,1.7452
5.1546,221,0.7129
5.1588,278,0.8968
5.1631,587,1.8935
5.1673,655,2.1129
5.1715,387,1.2484
5.1758,221,0.7129
5.1801,447,1.4419
5.1843,707,2.2806
5.1885,638,2.0581
5.1928,323,1.0419
5.1971,269,0.8677
5.2014,569,1.8355
5.2057,739,2.3839
5.2100,535,1.7258
5.2143,265,0.8548
5.2186,372,1.2000
5.2229,685,2.2097
5.2272,728,2.3484
5.2315,431,1.3903
5.2358,261,0.8419
5.2402,508,1.6387
5.2445,745,2.4032
5.2488,630,2.0323
5.2531,310,1.0000
5.2574,291,0.9387
5.2617,600,1.9355
5.2660,732,2.3613
5.2703,496,1.6000
5.2746,244,0.7871
5.2789,387,1.2484
5.2832,682,2.2000
5.2874,684,2.2065
5.2917,379,1.2226
5.2960,245,0.7903
5.3002,511,1.6484
5.3045,745,2.4032
5.3088,620,2.0000
5.3131,313,1.0097
5.3174,322,1.0387
5.3216,637,2.0548
5.3259,782,2.5226
5.3302,559,1.8032
5.3344,333,1.0742
5.3387,518,1.6710
5.3429,888,2.8645
5.3472,978,3.1548
5.3515,730,2.3548
5.3557,588,1.8968
5.3600,727,2.3452
5.3643,793,2.5581
5.3685,583,1.8806
5.3728,263,0.8484
5.3770,276,0.8903
5.3813,623,2.0097
5.3856,793,2.5581
5.3898,565,1.8226
5.3941,295,0.9516
5.3984,428,1.3806
5.4028,750,2.4194
5.4071,751,2.4226
5.4114,408,1.3161
5.4157,261,0.8419
5.4200,554,1.7871
5.4243,808,2.6065
5.4285,665,2.1452
5.4329,320,1.0323
5.4372,331,1.0677
5.4414,674,2.1742
5.4457,813,2.6226
5.4500,561,1.8097
5.4543,307,0.9903
5.4586,473,1.5258
5.4629,791,2.5516
5.4672,781,2.5194
5.4715,432,1.3935
5.4758,295,0.9516
5.4801,588,1.8968
5.4844,822,2.6516
5.4887,657,2.1194
5.4930,318,1.0258
5.4972,337,1.0871
5.5015,677,2.1839
5.5058,794,2.5613
5.5101,518,1.6710
5.5143,267,0.8613
5.5186,444,1.4323
5.5229,763,2.4613
5.5271,746,2.4065
5.5314,415,1.3387
5.5357,282,0.9097
5.5399,569,1.8355
5.5442,820,2.6452
5.5485,670,2.1613
5.5540,300,0.9677
5.5584,460,1.4839
5.5627,789,2.5452
5.5670,787,2.5387
5.5766,356,1.1484
5.5810,691,2.2290
5.5853,856,2.7613
5.5896,601,1.9387
5.5938,320,1.0323
5.5981,452,1.4581
5.6025,779,2.5129
5.6067,800,2.5806
5.6110,464,1.4968
5.6153,297,0.9581
5.6195,553,1.7839
5.6238,814,2.6258
5.6280,699,2.2548
5.6323,355,1.1452
5.6365,317,1.0226
5.6408,644,2.0774
5.6451,809,2.6097
5.6493,573,1.8484
5.6536,277,0.8935
5.6578,386,1.2452
5.6621,716,2.3097
5.6664,763,2.4613
5.6706,446,1.4387
5.6749,255,0.8226
5.6791,502,1.6194
5.6834,817,2.6355
5.6877,757,2.4419
5.6920,403,1.3000
5.6963,337,1.0871
5.7006,665,2.1452
5.7049,854,2.7548
5.7092,623,2.0097
5.7135,331,1.0677
5.7178,462,1.4903
5.7222,817,2.6355
5.7265,869,2.8032
5.7307,547,1.7645
5.7350,370,1.1935
5.7393,634,2.0452
5.7436,912,2.9419
5.7479,806,2.6000
5.7522,465,1.5000
5.7565,447,1.4419
5.7608,799,2.5774
5.7651,978,3.1548
5.7694,735,2.3710
5.7736,451,1.4548
5.7779,602,1.9419
5.7822,971,3.1323
5.7866,988,3.1871
5.7909,708,2.2839
5.7952,557,1.7968
5.7995,825,2.6613
5.8037,1003,3.2355
5.8080,929,2.9968
5.8123,599,1.9323
5.8166,567,1.8290
5.8208,878,2.8323
5.8251,995,3.2097
5.8294,766,2.4710
5.8336,477,1.5387
5.8379,592,1.9097
5.8422,896,2.8903
5.8464,908,2.9290
5.8518,486,1.5677
5.8563,430,1.3871
5.8607,732,2.3613
5.8650,865,2.7903
5.8696,563,1.8161
5.8740,281,0.9065
5.8783,415,1.3387
5.8826,673,2.1710
5.8869,618,1.9935
5.8912,287,0.9258
5.8955,181,0.5839
5.8998,469,1.5129
5.9042,668,2.1548
5.9085,495,1.5968
5.9128,192,0.6194
5.9171,245,0.7903
5.9214,557,1.7968
5.9257,633,2.0419
5.9300,358,1.1548
5.9343,149,0.4806
5.9387,355,1.1452
5.9430,636,2.0516
5.9472,586,1.8903
5.9515,276,0.8903
5.9557,202,0.6516
5.9600,487,1.5710
5.9643,672,2.1677
5.9685,494,1.5935
5.9728,202,0.6516
5.9771,260,0.8387
5.9813,576,1.8581
5.9856,657,2.1194
5.9899,377,1.2161
5.9941,162,0.5226
5.9984,356,1.1484
6.0027,644,2.0774
6.0070,601,1.9387
6.0112,286,0.9226
6.0155,197,0.6355
6.0198,485,1.5645
6.0240,689,2.2226
6.0282,523,1.6871
6.0325,220,0.7097
6.0368,269,0.8677
6.0410,605,1.9516
6.0453,720,2.3226
6.0495,478,1.5419
6.0538,295,0.9516
6.0581,544,1.7548
6.0623,924,2.9806
6.0666,963,3.1065
6.0708,628,2.0258
6.0751,351,1.1323
6.0793,443,1.4290
6.0836,579,1.8677
6.0879,427,1.3774
6.0921,122,0.3935
6.0964,158,0.5097
6.1007,508,1.6387
6.1051,627,2.0226
6.1093,348,1.1226
6.1137,100,0.3226
6.1180,287,0.9258
6.1222,603,1.9452
6.1266,564,1.8194
6.1309,212,0.6839
6.1352,100,0.3226
6.1394,415,1.3387
6.1438,640,2.0645
6.1480,449,1.4484
6.1523,120,0.3871
6.1566,179,0.5774
6.1609,534,1.7226
6.1652,625,2.0161
6.1695,316,1.0194
6.1737,80,0.2581
6.1780,303,0.9774
6.1823,622,2.0065
6.1866,560,1.8065
6.1909,197,0.6355
6.1952,106,0.3419
6.1995,447,1.4419
6.2038,667,2.1516
6.2080,453,1.4613
6.2123,117,0.3774
6.2166,191,0.6161
6.2208,565,1.8226
6.2251,658,2.1226
6.2294,333,1.0742
6.2337,88,0.2839
6.2379,318,1.0258
6.2422,654,2.1097
6.2464,599,1.9323
6.2507,221,0.7129
6.2550,108,0.3484
6.2593,447,1.4419
6.2635,685,2.2097
6.2678,481,1.5516
6.2720,125,0.4032
6.2763,181,0.5839
6.2806,566,1.8258
6.2848,679,2.1903
6.2891,362,1.1677
6.2933,97,0.3129
6.2979,331,1.0677
6.3022,667,2.1516
6.3065,591,1.9065
6.3108,205,0.6613
6.3151,113,0.3645
6.3194,475,1.5323
6.3237,698,2.2516
6.3280,463,1.4935
6.3322,118,0.3806
6.3365,211,0.6806
6.3408,596,1.9226
6.3451,670,2.1613
6.3494,320,1.0323
6.3537,84,0.2710
6.3580,336,1.0839
6.3623,667,2.1516
6.3666,571,1.8419
6.3708,182,0.5871
6.3751,109,0.3516
6.3794,481,1.5516
6.3837,692,2.2323
6.3880,442,1.4258
6.3923,94,0.3032
6.3967,214,0.6903
6.4009,601,1.9387
6.4052,659,2.1258
6.4095,296,0.9548
6.4137,68,0.2194
6.4180,341,1.1000
6.4223,672,2.1677
6.4265,572,1.8452
6.4308,174,0.5613
6.4350,98,0.3161
6.4393,472,1.5226
6.4436,696,2.2452
6.4479,437,1.4097
6.4545,0,0.0000
6.4589,171,0.5516
6.4632,443,1.4290
6.4675,551,1.7774
6.4718,552,1.7806
6.4760,530,1.7097
6.4803,513,1.6548
6.4845,506,1.6323
6.4888,505,1.6290
6.4930,508,1.6387
6.4973,512,1.6516
6.5016,513,1.6548
6.5059,509,1.6419
6.5103,507,1.6355
6.5145,510,1.6452
6.5188,512,1.6516
6.5230,512,1.6516
6.5273,507,1.6355
6.5316,507,1.6355
6.5358,511,1.6484
6.5401,512,1.6516
6.5443,509,1.6419
6.5486,507,1.6355
6.5528,507,1.6355
6.5571,511,1.6484
6.5613,512,1.6516
6.5656,509,1.6419
6.5699,507,1.6355
6.5741,509,1.6419
6.5784,512,1.6516
6.5827,512,1.6516
6.5869,508,1.6387
6.5912,508,1.6387
6.5954,511,1.6484
6.5997,512,1.6516
6.6040,510,1.6452
6.6083,506,1.6323
6.6126,509,1.6419
6.6169,515,1.6613
6.6212,489,1.5774
6.6255,162,0.5226
6.6297,0,0.0000
6.6340,0,0.0000
6.6383,0,0.0000
6.6426,163,0.5258
6.6469,0,0.0000
6.6512,0,0.0000
6.6555,0,0.0000
6.6598,0,0.0000
6.6640,150,0.4839
6.6683,0,0.0000
6.6726,0,0.0000
6.6769,0,0.0000
6.6812,81,0.2613
6.6854,112,0.3613
6.6897,0,0.0000
6.6941,0,0.0000
6.6983,0,0.0000
6.7026,263,0.8484
6.7070,0,0.0000
6.7113,0,0.0000
6.7156,0,0.0000
6.7198,103,0.3323
6.7241,497,1.6032
6.7284,0,0.0000
6.7327,0,0.0000
6.7370,0,0.0000
6.7413,629,2.0290
6.7456,814,2.6258
6.7499,0,0.0000
6.7550,0,0.0000
6.7594,634,2.0452
6.7638,1000,3.2258
6.7681,79,0.2548
6.7724,0,0.0000
6.7767,0,0.0000
6.7809,420,1.3548
6.7853,608,1.9613
6.7896,0,0.0000
6.7938,0,0.0000
6.7985,118,0.3806
6.8028,781,2.5194
6.8070,318,1.0258
6.8113,0,0.0000
6.8156,0,0.0000
6.8198,313,1.0097
6.8241,761,2.4548
6.8284,0,0.0000
6.8326,0,0.0000
6.8369,0,0.0000
6.8412,657,2.1194
6.8454,739,2.3839
6.8497,0,0.0000
6.8539,0,0.0000
6.8582,200,0.6452
6.8624,947,3.0548
6.8667,616,1.9871
6.8709,0,0.0000
6.8752,0,0.0000
6.8794,559,1.8032
6.8837,1000,3.2258
6.8879,386,1.2452
6.8922,0,0.0000
6.8964,30,0.0968
6.9007,878,2.8323
6.9051,964,3.1097
6.9094,24,0.0774
6.9137,0,0.0000
6.9180,299,0.9645
6.9223,1001,3.2290
6.9266,779,2.5129
6.9308,0,0.0000
6.9351,0,0.0000
6.9394,509,1.6419
6.9437,1002,3.2323
6.9480,512,1.6516
6.9523,0,0.0000
6.9566,98,0.3161
6.9608,890,2.8710
6.9651,991,3.1968
6.9694,246,0.7935
6.9737,0,0.0000
6.9780,438,1.4129
6.9823,1002,3.2323
6.9865,835,2.6935
6.9908,0,0.0000
6.9951,0,0.0000
6.9994,800,2.5806
7.0038,1004,3.2387
7.0081,526,1.6968
7.0124,0,0.0000
7.0167,201,0.6484
7.0210,1002,3.2323
7.0252,992,3.2000
7.0295,165,0.5323
7.0338,0,0.0000
7.0381,506,1.6323
7.0424,1004,3.2387
7.0467,815,2.6290
7.0510,0,0.0000
7.0553,21,0.0677
7.0596,867,2.7968
7.0638,1001,3.2290
7.0681,482,1.5548
7.0725,0,0.0000
7.0768,218,0.7032
7.0811,1004,3.2387
7.0854,983,3.1710
7.0896,130,0.4194
7.0940,0,0.0000
7.0986,630,2.0323
7.1030,1005,3.2419
7.1073,689,2.2226
7.1115,0,0.0000
7.1159,91,0.2935
7.1202,967,3.1194
7.1245,1001,3.2290
7.1288,387,1.2484
7.1331,0,0.0000
7.1374,235,0.7581
7.1417,736,2.3742
7.1460,597,1.9258
7.1503,101,0.3258
7.1546,152,0.4903
7.1589,733,2.3645
7.1632,934,3.0129
7.1675,485,1.5645
7.1718,74,0.2387
7.1760,357,1.1516
7.1803,875,2.8226
7.1846,844,2.7226
7.1889,312,1.0065
7.1932,119,0.3839
7.1975,580,1.8710
7.2022,938,3.0258
7.2066,622,2.0065
7.2109,165,0.5323
7.2152,297,0.9581
7.2194,787,2.5387
7.2237,863,2.7839
7.2280,446,1.4387
7.2323,210,0.6774
7.2366,499,1.6097
7.2409,784,2.5290
7.2452,635,2.0484
7.2494,299,0.9645
7.2538,322,1.0387
7.2580,661,2.1323
7.2623,754,2.4323
7.2666,493,1.5903
7.2709,279,0.9000
7.2752,468,1.5097
7.2795,754,2.4323
7.2838,696,2.2452
7.2881,378,1.2194
7.2924,260,0.8387
7.2967,549,1.7710
7.3010,831,2.6806
7.3053,694,2.2387
7.3096,328,1.0581
7.3139,312,1.0065
7.3182,680,2.1935
7.3225,840,2.7097
7.3268,580,1.8710
7.3311,298,0.9613
7.3354,455,1.4677
7.3396,802,2.5871
7.3439,804,2.5935
7.3493,370,1.1935
7.3553,453,1.4613
7.3598,793,2.5581
7.3642,769,2.4806
7.3685,423,1.3645
7.3728,296,0.9548
7.3770,589,1.9000
7.3813,822,2.6516
7.3856,650,2.0968
7.3899,308,0.9935
7.3942,339,1.0935
7.3985,690,2.2258
7.4028,786,2.5355
7.4071,500,1.6129
7.4113,265,0.8548
7.4156,451,1.4548
7.4199,759,2.4484
7.4241,719,2.3194
7.4284,388,1.2516
7.4327,283,0.9129
7.4370,586,1.8903
7.4413,821,2.6484
7.4455,653,2.1065
7.4498,310,1.0000
7.4540,329,1.0613
7.4586,720,2.3226
7.4629,833,2.6871
7.4672,556,1.7935
7.4714,335,1.0806
7.4757,589,1.9000
7.4800,992,3.2000
7.4843,996,3.2129
7.4885,780,2.5161
7.4928,668,2.1548
7.4970,832,2.6839
7.5013,863,2.7839
7.5056,570,1.8387
7.5099,208,0.6710
7.5142,268,0.8645
7.5185,670,2.1613
7.5228,801,2.5839
7.5271,493,1.5903
7.5314,211,0.6806
7.5357,416,1.3419
7.5400,771,2.4871
7.5443,724,2.3355
7.5485,345,1.1129
7.5528,214,0.6903
7.5571,564,1.8194
7.5614,833,2.6871
7.5657,639,2.0613
7.5700,253,0.8161
7.5743,279,0.9000
7.5786,678,2.1871
7.5829,819,2.6419
7.5871,514,1.6581
7.5914,226,0.7290
7.5957,414,1.3355
7.6000,767,2.4742
7.6043,746,2.4065
7.6086,384,1.2387
7.6129,252,0.8129
7.6172,566,1.8258
7.6215,817,2.6355
7.6257,660,2.1290
7.6300,326,1.0516
7.6343,350,1.1290
7.6386,671,2.1645
7.6429,796,2.5677
7.6472,610,1.9677
7.6516,395,1.2742
7.6563,536,1.7290
7.6608,772,2.4903
7.6652,761,2.4548
7.6695,527,1.7000
7.6739,445,1.4355
7.6782,663,2.1387
7.6825,837,2.7000
7.6869,741,2.3903
7.6912,503,1.6226
7.6955,523,1.6871
7.6998,770,2.4839
7.7043,861,2.7774
7.7087,663,2.1387
7.7130,481,1.5516
7.7173,627,2.0226
7.7216,853,2.7516
7.7259,844,2.7226
7.7302,588,1.8968
7.7345,500,1.6129
7.7388,726,2.3419
7.7431,891,2.8742
7.7474,770,2.4839
7.7517,515,1.6613
7.7560,540,1.7419
7.7603,782,2.5226
7.7646,859,2.7710
7.7689,639,2.0613
7.7732,442,1.4258
7.7775,581,1.8742
7.7818,799,2.5774
7.7861,775,2.5000
7.7904,511,1.6484
7.7946,420,1.3548
7.7989,641,2.0677
7.8032,801,2.5839
7.8077,666,2.1484
7.8120,416,1.3419
7.8163,464,1.4968
7.8206,707,2.2806
7.8250,768,2.4774
7.8293,535,1.7258
7.8336,372,1.2000
7.8379,555,1.7903
7.8423,765,2.4677
7.8466,709,2.2871
7.8509,446,1.4387
7.8553,412,1.3290
7.8596,660,2.1290
7.8639,791,2.5516
7.8683,618,1.9935
7.8726,400,1.2903
7.8769,508,1.6387
7.8812,742,2.3935
7.8856,767,2.4742
7.8899,521,1.6806
7.8942,414,1.3355
7.8986,623,2.0097
7.9029,795,2.5645
7.9072,689,2.2226
7.9116,447,1.4419
7.9159,480,1.5484
7.9202,732,2.3613
7.9245,824,2.6581
7.9288,612,1.9742
7.9331,421,1.3581
7.9374,568,1.8323
7.9417,789,2.5452
7.9460,775,2.5000
7.9503,515,1.6613
7.9546,429,1.3839
7.9588,650,2.0968
7.9631,809,2.6097
7.9674,678,2.1871
7.9717,423,1.3645
7.9760,470,1.5161
7.9803,719,2.3194
7.9846,794,2.5613
7.9889,571,1.8419
7.9932,391,1.2613
7.9975,558,1.8000
8.0018,768,2.4774
8.0061,702,2.2645
8.0104,439,1.4161
8.0147,451,1.4548
8.0190,722,2.3290
8.0234,771,2.4871
8.0277,475,1.5323
8.0320,284,0.9161
8.0364,533,1.7194
8.0407,806,2.6000
8.0450,673,2.1710
8.0493,288,0.9290
8.0537,269,0.8677
8.0580,670,2.1613
8.0623,847,2.7323
8.0667,536,1.7290
8.0710,199,0.6419
8.0753,392,1.2645
8.0796,813,2.6226
8.0840,817,2.6355
8.0883,391,1.2613
8.0926,216,0.6968
8.0970,581,1.8742
8.1013,887,2.8613
8.1056,681,2.1968
8.1101,259,0.8355
8.1144,331,1.0677
8.1187,770,2.4839
8.1230,888,2.8645
8.1273,514,1.6581
8.1316,221,0.7129
8.1359,478,1.5419
8.1402,846,2.7290
8.1445,774,2.4968
8.1488,342,1.1032
8.1531,236,0.7613
8.1574,629,2.0290
8.1617,882,2.8452
8.1660,623,2.0097
8.1703,228,0.7355
8.1746,322,1.0387
8.1789,740,2.3871
8.1832,826,2.6645
8.1875,448,1.4452
8.1918,183,0.5903
8.1961,464,1.4968
8.2003,825,2.6613
8.2047,726,2.3419
8.2089,299,0.9645
8.2132,218,0.7032
8.2176,635,2.0484
8.2219,880,2.8387
8.2263,626,2.0194
8.2306,304,0.9806
8.2349,512,1.6516
8.2393,997,3.2161
8.2436,1001,3.2290
8.2479,789,2.5452
8.2523,496,1.6000
8.2567,604,1.9484
8.2612,745,2.4032
8.2656,511,1.6484
8.2700,136,0.4387
8.2743,227,0.7323
8.2787,665,2.1452
8.2832,772,2.4903
8.2875,400,1.2903
8.2918,154,0.4968
8.2961,440,1.4194
8.3005,784,2.5290
8.3049,666,2.1484
8.3092,256,0.8258
8.3135,217,0.7000
8.3179,618,1.9935
8.3222,803,2.5903
8.3265,507,1.6355
8.3308,177,0.5710
8.3354,378,1.2194
8.3398,756,2.4387
8.3441,721,2.3258
8.3484,316,1.0194
8.3527,182,0.5871
8.3570,539,1.7387
8.3613,803,2.5903
8.3656,596,1.9226
8.3699,216,0.6968
8.3742,273,0.8806
8.3785,674,2.1742
8.3829,783,2.5258
8.3872,440,1.4194
8.3914,172,0.5548
8.3957,411,1.3258
8.4000,768,2.4774
8.4044,704,2.2710
8.4087,308,0.9935
8.4130,212,0.6839
8.4176,607,1.9581
8.4220,812,2.6194
8.4263,553,1.7839
8.4306,230,0.7419
8.4348,370,1.1935
8.4391,752,2.4258
8.4435,797,2.5710
8.4478,444,1.4323
8.4521,255,0.8226
8.4563,539,1.7387
8.4606,836,2.6968
8.4650,710,2.2903
8.4694,339,1.0935
8.4737,331,1.0677
8.4779,692,2.2323
8.4822,856,2.7613
8.4866,586,1.8903
8.4909,295,0.9516
8.4952,450,1.4516
8.4998,808,2.6065
8.5041,782,2.5226
8.5084,426,1.3742
8.5127,306,0.9871
8.5170,615,1.9839
8.5213,842,2.7161
8.5257,656,2.1161
8.5299,319,1.0290
8.5342,365,1.1774
8.5385,700,2.2581
8.5428,789,2.5452
8.5472,496,1.6000
8.5515,259,0.8355
8.5560,483,1.5581
8.5604,764,2.4645
8.5659,579,1.8677
8.5703,268,0.8645
8.5746,348,1.1226
8.5789,676,2.1806
8.5832,729,2.3516
8.5876,419,1.3516
8.5919,227,0.7323
8.5962,458,1.4774
8.6004,729,2.3516
8.6048,641,2.0677
8.6091,310,1.0000
8.6134,267,0.8613
8.6177,581,1.8742
8.6220,745,2.4032
8.6263,523,1.6871
8.6306,250,0.8065
8.6349,370,1.1935
8.6392,688,2.2194
8.6437,707,2.2806
8.6481,389,1.2548
8.6524,250,0.8065
8.6566,513,1.6548
8.6609,750,2.4194
8.6652,619,1.9968
8.6696,301,0.9710
8.6739,315,1.0161
8.6782,636,2.0516
8.6825,759,2.4484
8.6868,501,1.6161
8.6911,259,0.8355
8.6954,428,1.3806
8.6997,723,2.3323
8.7040,701,2.2613
8.7083,371,1.1968
8.7126,254,0.8194
8.7169,533,1.7194
8.7212,743,2.3968
8.7255,578,1.8645
8.7299,267,0.8613
8.7341,311,1.0032
8.7384,629,2.0290
8.7427,717,2.3129
8.7470,438,1.4129
8.7513,214,0.6903
8.7556,406,1.3097
8.7599,687,2.2161
8.7642,644,2.0774
8.7685,318,1.0258
8.7729,231,0.7452
8.7772,528,1.7032
8.7814,714,2.3032
8.7857,530,1.7097
8.7900,233,0.7516
8.7944,307,0.9903
8.7987,626,2.0194
8.8030,695,2.2419
8.8073,404,1.3032
8.8116,204,0.6581
8.8159,426,1.3742
8.8202,696,2.2452
8.8245,622,2.0065
8.8288,304,0.9806
8.8330,250,0.8065
8.8373,559,1.8032
8.8415,733,2.3645
8.8458,530,1.7097
8.8501,240,0.7742
8.8543,327,1.0548
8.8586,656,2.1161
8.8629,725,2.3387
8.8671,429,1.3839
8.8714,221,0.7129
8.8757,429,1.3839
8.8800,703,2.2677
8.8842,636,2.0516
8.8885,306,0.9871
8.8928,228,0.7355
8.8970,524,1.6903
8.9013,713,2.3000
8.9056,525,1.6935
8.9098,227,0.7323
8.9141,292,0.9419
8.9184,611,1.9710
8.9227,689,2.2226
8.9269,407,1.3129
8.9312,200,0.6452
8.9355,406,1.3097
8.9398,687,2.2161
8.9441,628,2.0258
8.9485,302,0.9742
8.9528,234,0.7548
8.9571,546,1.7613
8.9614,745,2.4032
8.9656,577,1.8613
8.9700,333,1.0742
8.9743,500,1.6129
8.9786,899,2.9000
8.9829,997,3.2161
8.9872,765,2.4677
8.9915,476,1.5355
8.9960,512,1.6516
9.0003,635,2.0484
9.0046,512,1.6516
9.0089,207,0.6677
9.0132,205,0.6613
9.0175,545,1.7581
9.0218,711,2.2935
9.0261,484,1.5613
9.0304,215,0.6935
9.0347,344,1.1097
9.0390,654,2.1097
9.0433,664,2.1419
9.0476,351,1.1323
9.0518,203,0.6548
9.0562,467,1.5065
9.0604,707,2.2806
9.0647,581,1.8742
9.0691,261,0.8419
9.0734,263,0.8484
9.0776,583,1.8806
9.0819,716,2.3097
9.0861,476,1.5355
9.0904,220,0.7097
9.0946,353,1.1387
9.0989,664,2.1419
9.1032,680,2.1935
9.1074,374,1.2065
9.1117,220,0.7097
9.1160,469,1.5129
9.1202,718,2.3161
9.1245,611,1.9710
9.1288,293,0.9452
9.1334,288,0.9290
9.1377,610,1.9677
9.1420,734,2.3677
9.1463,486,1.5677
9.1506,245,0.7903
9.1550,422,1.3613
9.1595,717,2.3129
9.1639,669,2.1581
9.1682,347,1.1194
9.1725,270,0.8710
9.1768,574,1.8516
9.1812,765,2.4677
9.1855,573,1.8484
9.1897,291,0.9387
9.1940,376,1.2129
9.1983,693,2.2355
9.2027,755,2.4355
9.2070,468,1.5097
9.2112,277,0.8935
9.2160,537,1.7323
9.2208,784,2.5290
9.2251,616,1.9871
9.2294,312,1.0065
9.2336,356,1.1484
9.2379,673,2.1710
9.2422,764,2.4645
9.2465,495,1.5968
9.2507,268,0.8645
9.2549,441,1.4226
9.2592,727,2.3452
9.2635,692,2.2323
9.2678,369,1.1903
9.2721,260,0.8387
9.2764,534,1.7226
9.2806,737,2.3774
9.2849,573,1.8484
9.2892,267,0.8613
9.2934,299,0.9645
9.2980,638,2.0581
9.3024,716,2.3097
9.3067,431,1.3903
9.3109,224,0.7226
9.3152,422,1.3613
9.3194,702,2.2645
9.3241,622,2.0065
9.3285,299,0.9645
9.3327,261,0.8419
9.3370,565,1.8226
9.3412,727,2.3452
9.3455,512,1.6516
9.3498,238,0.7677
9.3540,336,1.0839
9.3583,653,2.1065
9.3626,700,2.2581
9.3669,403,1.3000
9.3712,224,0.7226
9.3754,453,1.4613
9.3801,725,2.3387
9.3844,603,1.9452
9.3887,285,0.9194
9.3930,280,0.9032
9.3972,596,1.9226
9.4015,736,2.3742
9.4058,496,1.6000
9.4101,243,0.7839
9.4144,379,1.2226
9.4186,684,2.2065
9.4229,698,2.2516
9.4272,389,1.2548
9.4315,245,0.7903
9.4357,496,1.6000
9.4400,733,2.3645
9.4443,622,2.0065
9.4486,296,0.9548
9.4556,487,1.5710
9.4601,736,2.3742
9.4644,604,1.9484
9.4688,292,0.9419
9.4731,303,0.9774
9.4774,620,2.0000
9.4817,742,2.3935
9.4860,494,1.5935
9.4903,259,0.8355
9.4946,422,1.3613
9.4989,716,2.3097
9.5032,701,2.2613
9.5075,380,1.2258
9.5118,277,0.8935
9.5161,564,1.8194
9.5205,780,2.5161
9.5248,619,1.9968
9.5291,313,1.0097
9.5334,358,1.1548
9.5377,678,2.1871
9.5420,771,2.4871
9.5462,501,1.6161
9.5506,282,0.9097
9.5548,473,1.5258
9.5591,758,2.4452
9.5634,713,2.3000
9.5677,389,1.2548
9.5720,305,0.9839
9.5763,601,1.9387
9.5806,796,2.5677
9.5849,615,1.9839
9.5892,314,1.0129
9.5935,381,1.2290
9.5978,697,2.2484
9.6021,773,2.4935
9.6064,488,1.5742
9.6107,290,0.9355
9.6150,507,1.6355
9.6193,784,2.5290
9.6236,721,2.3258
9.6280,390,1.2581
9.6323,332,1.0710
9.6366,641,2.0677
9.6409,821,2.6484
9.6451,621,2.0032
9.6494,332,1.0710
9.6538,425,1.3710
9.6580,737,2.3774
9.6623,779,2.5129
9.6666,477,1.5387
9.6709,295,0.9516
9.6752,527,1.7000
9.6795,787,2.5387
9.6838,693,2.2355
9.6881,364,1.1742
9.6924,326,1.0516
9.6967,634,2.0452
9.7010,791,2.5516
9.7053,563,1.8161
9.7096,286,0.9226
9.7139,411,1.3258
9.7182,730,2.3548
9.7225,761,2.4548
9.7268,447,1.4419
9.7312,284,0.9161
9.7355,542,1.7484
9.7398,796,2.5677
9.7440,691,2.2290
9.7483,383,1.2355
9.7526,417,1.3452
9.7569,797,2.5710
9.7612,996,3.2129
9.7655,849,2.7387
9.7698,630,2.0323
9.7741,715,2.3065
9.7784,842,2.7161
9.7827,679,2.1903
9.7870,307,0.9903
9.7913,179,0.5774
9.7956,483,1.5581
9.7999,739,2.3839
9.8042,614,1.9806
9.8085,301,0.9710
9.8128,320,1.0323
9.8171,645,2.0806
9.8214,763,2.4613
9.8257,500,1.6129
9.8300,257,0.8290
9.8343,441,1.4226
9.8386,753,2.4290
9.8429,731,2.3581
9.8472,405,1.3065
9.8515,294,0.9484
9.8558,594,1.9161
9.8601,814,2.6258
9.8644,642,2.0710
9.8687,330,1.0645
9.8730,382,1.2323
9.8773,723,2.3323
9.8816,818,2.6387
9.8860,531,1.7129
9.8902,313,1.0097
9.8946,524,1.6903
9.8989,824,2.6581
9.9033,757,2.4419
9.9076,421,1.3581
9.9119,350,1.1290
9.9162,661,2.1323
9.9205,847,2.7323
9.9248,637,2.0548
9.9291,342,1.1032
9.9334,443,1.4290
9.9377,779,2.5129
9.9420,842,2.7161
9.9463,536,1.7290
9.9506,349,1.1258
9.9549,588,1.8968
9.9592,865,2.7903
9.9635,778,2.5097
9.9678,443,1.4290
9.9721,405,1.3065
9.9764,729,2.3516
9.9807,898,2.8968
9.9850,671,2.1645
9.9893,387,1.2484
9.9936,512,1.6516
9.9980,842,2.7161
10.0023,863,2.7839
10.0066,539,1.7387
10.0109,379,1.2226
10.0159,711,2.2935
10.0204,905,2.9194
10.0249,671,2.1645
10.0293,373,1.2032
10.0338,521,1.6806
10.0384,848,2.7355
10.0428,811,2.6161
10.0471,462,1.4903
10.0514,350,1.1290
10.0558,655,2.1129
10.0603,847,2.7323
10.0647,618,1.9935
10.0690,313,1.0097
10.0733,411,1.3258
10.0776,742,2.3935
10.0819,788,2.5419
10.0862,462,1.4903
10.0906,280,0.9032
10.0949,534,1.7226
10.0992,804,2.5935
10.1035,684,2.2065
10.1078,342,1.1032
10.1121,322,1.0387
10.1164,654,2.1097
10.1206,813,2.6226
10.1250,557,1.7968
10.1293,278,0.8968
10.1336,417,1.3452
10.1379,747,2.4097
10.1422,759,2.4484
10.1465,419,1.3516
10.1507,261,0.8419
10.1550,538,1.7355
10.1593,795,2.5645
10.1636,659,2.1258
10.1679,315,1.0161
10.1722,315,1.0161
10.1765,656,2.1161
10.1809,788,2.5419
10.1853,501,1.6161
10.1896,240,0.7742
10.1939,420,1.3548
10.1981,743,2.3968
10.2024,723,2.3323
10.2067,372,1.2000
10.2110,246,0.7935
10.2153,547,1.7645
10.2196,778,2.5097
10.2239,606,1.9548
10.2283,268,0.8645
10.2326,323,1.0419
10.2370,671,2.1645
10.2413,759,2.4484
10.2456,449,1.4484
10.2500,223,0.7194
10.2543,454,1.4645
10.2586,752,2.4258
10.2629,668,2.1548
10.2673,312,1.0065
10.2716,252,0.8129
10.2759,588,1.8968
10.2803,764,2.4645
10.2846,519,1.6742
10.2889,224,0.7226
10.2933,357,1.1516
10.2976,701,2.2613
10.3019,716,2.3097
10.3063,371,1.1968
10.3106,212,0.6839
10.3150,498,1.6065
10.3193,752,2.4258
10.3236,595,1.9194
10.3279,248,0.8000
10.3323,275,0.8871
10.3366,630,2.0323
10.3409,751,2.4226
10.3452,460,1.4839
10.3495,204,0.6581
10.3538,403,1.3000
10.3584,736,2.3742
10.3629,658,2.1226
10.3672,301,0.9710
10.3716,255,0.8226
10.3759,600,1.9355
10.3802,771,2.4871
10.3845,517,1.6677
10.3888,206,0.6645
10.3931,335,1.0806
10.3974,684,2.2065
10.4017,714,2.3032
10.4060,365,1.1774
10.4104,182,0.5871
10.4148,465,1.5000
10.4190,738,2.3806
10.4233,600,1.9355
10.4276,243,0.7839
10.4319,236,0.7613
10.4362,584,1.8839
10.4405,731,2.3581
10.4448,456,1.4710
10.4491,170,0.5484
10.4534,332,1.0710
10.4577,671,2.1645
10.4620,670,2.1613
10.4663,320,1.0323
10.4706,179,0.5774
10.4749,493,1.5903
10.4792,774,2.4968
10.4834,664,2.1419
10.4877,375,1.2097
10.4921,472,1.5226
10.4963,901,2.9065
10.5006,999,3.2226
10.5049,663,2.1387
10.5092,197,0.6355
10.5135,249,0.8032
10.5178,567,1.8290
10.5221,565,1.8226
10.5264,228,0.7355
10.5307,104,0.3355
10.5350,432,1.3935
10.5393,687,2.2161
10.5437,509,1.6419
10.5480,163,0.5258
10.5523,211,0.6806
10.5566,578,1.8645
10.5610,675,2.1774
10.5653,354,1.1419
10.5696,119,0.3839
10.5740,356,1.1484
10.5783,679,2.1903
10.5826,600,1.9355
10.5869,232,0.7484
10.5913,164,0.5290
10.5956,516,1.6645
10.6000,710,2.2903
10.6043,471,1.5194
10.6086,162,0.5226
10.6129,288,0.9290
10.6173,646,2.0839
10.6216,677,2.1839
10.6260,323,1.0419
10.6303,156,0.5032
10.6346,455,1.4677
10.6390,722,2.3290
10.6433,577,1.8613
10.6475,221,0.7129
10.6518,222,0.7161
10.6561,582,1.8774
10.6604,727,2.3452
10.6647,450,1.4516
10.6690,172,0.5548
10.6733,339,1.0935
10.6776,685,2.2097
10.6819,680,2.1935
10.6862,327,1.0548
10.6905,183,0.5903
10.6948,488,1.5742
10.6991,749,2.4161
10.7034,590,1.9032
10.7077,243,0.7839
10.7120,265,0.8548
10.7162,625,2.0161
10.7206,760,2.4516
10.7248,471,1.5194
10.7291,205,0.6613
10.7334,389,1.2548
10.7377,723,2.3323
10.7421,699,2.2548
10.7464,337,1.0871
10.7507,218,0.7032
10.7551,533,1.7194
10.7594,764,2.4645
10.7637,565,1.8226
10.7680,220,0.7097
10.7724,284,0.9161
10.7767,641,2.0677
10.7810,720,2.3226
10.7854,387,1.2484
10.7897,161,0.5194
10.7940,409,1.3194
10.7984,712,2.2968
10.8027,611,1.9710
10.8071,242,0.7806
10.8114,195,0.6290
10.8157,546,1.7613
10.8200,719,2.3194
10.8244,462,1.4903
10.8287,166,0.5355
10.8330,314,1.0129
10.8374,659,2.1258
10.8417,661,2.1323
10.8460,310,1.0000
10.8503,159,0.5129
10.8546,456,1.4710
10.8589,716,2.3097
10.8632,566,1.8258
10.8675,223,0.7194
10.8718,230,0.7419
10.8760,570,1.8387
10.8803,693,2.2355
10.8846,405,1.3065
10.8889,139,0.4484
10.8932,316,1.0194
10.8975,652,2.1032
10.9018,632,2.0387
10.9061,280,0.9032
10.9104,145,0.4677
10.9147,448,1.4452
10.9190,690,2.2258
10.9233,510,1.6452
10.9276,165,0.5323
10.9319,203,0.6548
10.9362,570,1.8387
10.9405,685,2.2097
10.9448,373,1.2032
10.9491,122,0.3935
10.9535,343,1.1065
10.9595,695,2.2419
10.9640,444,1.4323
10.9683,140,0.4516
10.9727,283,0.9129
10.9770,644,2.0774
10.9813,665,2.1452
10.9857,309,0.9968
10.9900,154,0.4968
10.9943,467,1.5065
10.9987,741,2.3903
11.0035,525,1.6935
11.0079,197,0.6355
11.0123,308,0.9935
11.0166,683,2.2032
11.0209,744,2.4000
11.0252,393,1.2677
11.0296,191,0.6161
11.0339,482,1.5548
11.0382,784,2.5290
11.0426,652,2.1032
11.0469,268,0.8645
11.0512,245,0.7903
11.0555,619,1.9968
11.0598,789,2.5452
11.0640,512,1.6516
11.0683,203,0.6548
11.0726,364,1.1742
11.0769,732,2.3613
11.0812,740,2.3871
11.0855,364,1.1742
11.0898,189,0.6097
11.0941,501,1.6161
11.0984,784,2.5290
11.1027,625,2.0161
11.1070,247,0.7968
11.1113,259,0.8355
11.1156,652,2.1032
11.1199,805,2.5968
11.1241,497,1.6032
11.1284,192,0.6194
11.1372,764,2.4645
11.1416,726,2.3419
11.1460,326,1.0516
11.1503,219,0.7065
11.1547,576,1.8581
11.1590,804,2.5935
11.1633,555,1.7903
11.1677,189,0.6097
11.1720,293,0.9452
11.1763,691,2.2290
11.1806,752,2.4258
11.1850,372,1.2000
11.1893,150,0.4839
11.1937,452,1.4581
11.1980,773,2.4935
11.2023,635,2.0484
11.2066,232,0.7484
11.2110,214,0.6903
11.2153,613,1.9774
11.2196,787,2.5387
11.2240,478,1.5419
11.2283,165,0.5323
11.2326,365,1.1774
11.2369,752,2.4258
11.2413,748,2.4129
11.2456,365,1.1774
11.2499,241,0.7774
11.2542,641,2.0677
11.2589,968,3.1226
11.2633,810,2.6129
11.2676,518,1.6710
11.2719,646,2.0839
11.2762,926,2.9871
11.2805,792,2.5548
11.2848,304,0.9806
11.2891,60,0.1935
11.2934,369,1.1903
11.2977,730,2.3548
11.3020,638,2.0581
11.3063,251,0.8097
11.3108,221,0.7129
11.3152,620,2.0000
11.3195,786,2.5355
11.3238,477,1.5387
11.3281,157,0.5065
11.3324,331,1.0677
11.3367,723,2.3323
11.3410,730,2.3548
11.3453,339,1.0935
11.3496,169,0.5452
11.3539,499,1.6097
11.3582,795,2.5645
11.3625,628,2.0258
11.3667,238,0.7677
11.3710,243,0.7839
11.3753,640,2.0645
11.3796,802,2.5871
11.3839,491,1.5839
11.3882,184,0.5935
11.3925,376,1.2129
11.3968,751,2.4226
11.4011,735,2.3710
11.4054,337,1.0871
11.4097,187,0.6032
11.4140,535,1.7258
11.4183,824,2.6581
11.4226,638,2.0581
11.4269,249,0.8032
11.4312,283,0.9129
11.4355,690,2.2258
11.4398,831,2.6806
11.4442,483,1.5581
11.4485,196,0.6323
11.4529,435,1.4032
11.4572,794,2.5613
11.4615,722,2.3290
11.4659,294,0.9484
11.4702,195,0.6290
11.4745,573,1.8484
11.4789,803,2.5903
11.4832,551,1.7774
11.4875,199,0.6419
11.4919,335,1.0806
11.4962,749,2.4161
11.5005,796,2.5677
11.5049,402,1.2968
11.5092,190,0.6129
11.5135,517,1.6677
11.5179,841,2.7129
11.5222,691,2.2290
11.5265,278,0.8968
11.5308,264,0.8516
11.5352,671,2.1645
11.5395,828,2.6710
11.5438,493,1.5903
11.5481,171,0.5516
11.5524,371,1.1968
11.5567,759,2.4484
11.5610,738,2.3806
11.5653,324,1.0452
11.5696,159,0.5129
11.5739,514,1.6581
11.5782,804,2.5935
11.5825,602,1.9419
11.5868,198,0.6387
11.5911,227,0.7323
11.5953,647,2.0871
11.5997,786,2.5355
11.6040,429,1.3839
11.6083,126,0.4065
11.6126,360,1.1613
11.6169,749,2.4161
11.6212,703,2.2677
11.6254,275,0.8871
11.6297,137,0.4419
11.6340,522,1.6839
11.6383,803,2.5903
11.6427,562,1.8129
11.6470,159,0.5129
11.6514,258,0.8323
11.6557,708,2.2839
11.6600,804,2.5935
11.6644,406,1.3097
11.6687,145,0.4677
11.6730,455,1.4677
11.6773,822,2.6516
11.6817,692,2.2323
11.6861,243,0.7839
11.6904,189,0.6097
11.6947,605,1.9516
11.6991,789,2.5452
11.7034,441,1.4226
11.7078,85,0.2742
11.7121,294,0.9484
11.7164,732,2.3613
11.7207,727,2.3452
11.7251,290,0.9355
11.7294,123,0.3968
11.7337,517,1.6677
11.7380,822,2.6516
11.7424,599,1.9323
11.7467,169,0.5452
11.7510,228,0.7355
11.7553,680,2.1935
11.7596,807,2.6032
11.7639,421,1.3581
11.7682,112,0.3613
11.7725,381,1.2290
11.7768,791,2.5516
11.7811,728,2.3484
11.7854,279,0.9000
11.7897,156,0.5032
11.7940,576,1.8581
11.7982,864,2.7871
11.8026,610,1.9677
11.8069,194,0.6258
11.8112,292,0.9419
11.8155,750,2.4194
11.8197,850,2.7419
11.8240,441,1.4226
11.8283,156,0.5032
11.8326,458,1.4774
11.8369,857,2.7645
11.8412,764,2.4645
11.8455,309,0.9968
11.8498,220,0.7097
11.8542,663,2.1387
11.8598,867,2.7968
11.8643,440,1.4194
11.8686,186,0.6000
11.8730,518,1.6710
11.8773,878,2.8323
11.8816,721,2.3258
11.8860,268,0.8645
11.8903,245,0.7903
11.8947,687,2.2161
11.8990,871,2.8097
11.9033,525,1.6935
11.9077,175,0.5645
11.9120,392,1.2645
11.9164,808,2.6065
11.9207,784,2.5290
11.9256,297,0.9581
11.9300,224,0.7226
11.9343,643,2.0742
11.9386,859,2.7710
11.9430,566,1.8258
11.9473,211,0.6806
11.9516,388,1.2516
11.9560,820,2.6452
11.9602,879,2.8355
11.9645,524,1.6903
11.9688,385,1.2419
11.9731,774,2.4968
11.9774,1002,3.2323
11.9817,863,2.7839
11.9860,267,0.8613
11.9903,60,0.1935
11.9946,404,1.3032
11.9989,586,1.8903
12.0032,290,0.9355
12.0075,0,0.0000
12.0118,151,0.4871
12.0161,547,1.7645
12.0204,565,1.8226
12.0247,171,0.5516
12.0290,0,0.0000
12.0333,331,1.0677
12.0376,656,2.1161
12.0419,505,1.6290
12.0462,97,0.3129
12.0505,113,0.3645
12.0549,536,1.7290
12.0592,692,2.2323
12.0636,367,1.1839
12.0679,71,0.2290
12.0722,296,0.9548
12.0766,662,2.1355
12.0809,587,1.8935
12.0852,155,0.5000
12.0896,17,0.0548
12.0939,380,1.2258
12.0982,622,2.0065
12.1026,371,1.1968
12.1069,27,0.0871
12.1112,188,0.6065
12.1156,657,2.1194
12.1199,756,2.4387
12.1242,402,1.2968
12.1286,195,0.6290
12.1329,513,1.6548
12.1372,857,2.7645
12.1416,738,2.3806
12.1459,344,1.1097
12.1502,343,1.1065
12.1546,760,2.4516
12.1594,910,2.9355
12.1638,545,1.7581
12.1681,275,0.8871
12.1724,531,1.7129
12.1767,884,2.8516
12.1810,806,2.6000
12.1853,389,1.2548
12.1896,285,0.9194
12.1939,650,2.0968
12.1982,879,2.8355
12.2025,616,1.9871
12.2068,233,0.7516
12.2111,316,1.0194
12.2154,699,2.2548
12.2197,759,2.4484
12.2240,371,1.1968
12.2283,102,0.3290
12.2326,390,1.2581
12.2369,783,2.5258
12.2413,723,2.3323
12.2456,335,1.0806
12.2498,282,0.9097
12.2541,672,2.1677
12.2584,878,2.8323
12.2627,620,2.0000
12.2670,271,0.8742
12.2713,403,1.3000
12.2756,785,2.5323
12.2799,814,2.6258
12.2842,416,1.3419
12.2885,169,0.5452
12.2928,441,1.4226
12.2971,745,2.4032
12.3014,604,1.9484
12.3057,192,0.6194
12.3100,153,0.4935
12.3143,549,1.7710
12.3186,733,2.3645
12.3229,442,1.4258
12.3272,107,0.3452
12.3315,269,0.8677
12.3357,682,2.2000
12.3400,718,2.3161
12.3443,341,1.1000
12.3487,155,0.5000
12.3530,495,1.5968
12.3574,810,2.6129
12.3617,644,2.0774
12.3661,256,0.8258
12.3704,285,0.9194
12.3747,705,2.2742
12.3790,851,2.7452
12.3834,516,1.6645
12.3877,221,0.7129
12.3920,443,1.4290
12.3963,807,2.6032
12.4007,748,2.4129
12.4051,333,1.0742
12.4094,226,0.7290
12.4137,590,1.9032
12.4180,809,2.6097
12.4223,552,1.7806
12.4266,191,0.6161
12.4309,296,0.9548
12.4352,698,2.2516
12.4395,782,2.5226
12.4438,423,1.3645
12.4481,185,0.5968
12.4524,458,1.4774
12.4567,785,2.5323
12.4609,686,2.2129
12.4652,280,0.9032
12.4694,192,0.6194
12.4737,556,1.7935
12.4780,776,2.5032
12.4823,533,1.7194
12.4865,167,0.5387
12.4908,247,0.7968
12.4950,637,2.0548
12.4993,727,2.3452
12.5035,379,1.2226
12.5078,110,0.3548
12.5121,335,1.0806
12.5163,661,2.1323
12.5206,583,1.8806
12.5249,178,0.5742
12.5291,49,0.1581
12.5334,407,1.3129
12.5376,669,2.1581
12.5419,466,1.5032
12.5462,96,0.3097
12.5505,143,0.4613
12.5548,541,1.7452
12.5591,653,2.1065
12.5634,317,1.0226
12.5677,53,0.1710
12.5720,296,0.9548
12.5763,658,2.1226
12.5806,590,1.9032
12.5849,186,0.6000
12.5892,77,0.2484
12.5935,440,1.4194
12.5978,675,2.1774
12.6021,440,1.4194
12.6064,72,0.2323
12.6106,153,0.4935
12.6149,558,1.8000
12.6192,659,2.1258
12.6235,326,1.0516
12.6277,98,0.3161
12.6320,369,1.1903
12.6363,738,2.3806
12.6406,679,2.1903
12.6449,278,0.8968
12.6491,168,0.5419
12.6534,527,1.7000
12.6577,785,2.5323
12.6620,580,1.8710
12.6663,249,0.8032
12.6705,385,1.2419
12.6748,851,2.7452
12.6791,996,3.2129
12.6834,740,2.3871
12.6876,456,1.4710
12.6919,530,1.7097
12.6962,667,2.1516
12.7004,500,1.6129
12.7047,83,0.2677
12.7090,0,0.0000
12.7133,330,1.0645
12.7176,568,1.8323
12.7219,340,1.0968
12.7262,0,0.0000
12.7305,117,0.3774
12.7348,573,1.8484
12.7390,707,2.2806
12.7433,377,1.2161
12.7476,115,0.3710
12.7519,370,1.1935
12.7564,732,2.3613
12.7607,635,2.0484
12.7651,235,0.7581
12.7695,187,0.6032
12.7738,586,1.8903
12.7781,776,2.5032
12.7824,501,1.6161
12.7867,168,0.5419
12.7909,315,1.0161
12.7953,713,2.3000
12.7995,754,2.4323
12.8038,383,1.2355
12.8081,181,0.5839
12.8124,488,1.5742
12.8167,807,2.6032
12.8209,690,2.2258
12.8252,303,0.9774
12.8295,271,0.8742
12.8338,665,2.1452
12.8381,856,2.7613
12.8423,578,1.8645
12.8466,238,0.7677
12.8509,379,1.2226
12.8552,772,2.4903
12.8595,825,2.6613
12.8637,467,1.5065
12.8680,263,0.8484
12.8722,555,1.7903
12.8765,876,2.8258
12.8807,774,2.4968
12.8850,387,1.2484
12.8892,329,1.0613
12.8934,706,2.2774
12.8977,926,2.9871
12.9020,683,2.2032
12.9062,324,1.0452
12.9108,449,1.4484
12.9151,825,2.6613
12.9194,868,2.8000
12.9236,499,1.6097
12.9279,286,0.9226
12.9321,573,1.8484
12.9364,894,2.8839
12.9407,788,2.5419
12.9449,386,1.2452
12.9492,317,1.0226
12.9534,685,2.2097
12.9577,880,2.8387
12.9620,609,1.9645
12.9663,251,0.8097
12.9707,369,1.1903
12.9750,755,2.4355
12.9793,801,2.5839
12.9836,429,1.3839
12.9879,215,0.6935
12.9922,509,1.6419
12.9965,826,2.6645
13.0007,736,2.3742
13.0050,386,1.2452
13.0093,344,1.1097
13.0136,690,2.2258
13.0179,835,2.6935
13.0222,521,1.6806
13.0265,161,0.5194
13.0308,273,0.8806
13.0350,632,2.0387
13.0393,659,2.1258
13.0436,334,1.0774
13.0479,205,0.6613
13.0522,576,1.8581
13.0566,924,2.9806
13.0612,774,2.4968
13.0656,399,1.2871
13.0699,405,1.3065
13.0741,739,2.3839
13.0784,810,2.6129
13.0827,441,1.4226
13.0870,148,0.4774
13.0913,412,1.3290
13.0956,843,2.7194
13.0998,863,2.7839
13.1041,503,1.6226
13.1084,385,1.2419
13.1127,747,2.4097
13.1170,999,3.2226
13.1212,849,2.7387
13.1256,487,1.5710
13.1298,538,1.7355
13.1341,913,2.9452
13.1384,976,3.1484
13.1427,643,2.0742
13.1470,379,1.2226
13.1512,619,1.9968
13.1555,995,3.2097
13.1599,961,3.1000
13.1642,601,1.9387
13.1684,478,1.5419
13.1727,820,2.6452
13.1769,1003,3.2355
13.1811,897,2.8935
13.1854,547,1.7645
13.1897,530,1.7097
13.1939,831,2.6806
13.1982,881,2.8419
13.2024,487,1.5710
13.2067,122,0.3935
13.2109,316,1.0194
13.2152,765,2.4677
13.2195,824,2.6581
13.2237,469,1.5129
13.2280,311,1.0032
13.2322,640,2.0645
13.2364,937,3.0226
13.2407,776,2.5032
13.2450,363,1.1710
13.2492,339,1.0935
13.2535,730,2.3548
13.2578,911,2.9387
13.2621,609,1.9645
13.2664,267,0.8613
13.2707,427,1.3774
13.2750,808,2.6065
13.2792,817,2.6355
13.2835,425,1.3710
13.2878,232,0.7484
13.2921,546,1.7613
13.2963,849,2.7387
13.3006,703,2.2677
13.3049,294,0.9484
13.3092,265,0.8548
13.3135,653,2.1065
13.3177,826,2.6645
13.3220,536,1.7290
13.3263,221,0.7129
13.3306,406,1.3097
13.3349,809,2.6097
13.3391,837,2.7000
13.3435,451,1.4548
13.3477,261,0.8419
13.3520,576,1.8581
13.3563,882,2.8452
13.3605,739,2.3839
13.3649,335,1.0806
13.3692,315,1.0161
13.3734,704,2.2710
13.3777,881,2.8419
13.3820,582,1.8774
13.3862,250,0.8065
13.3905,412,1.3290
13.3948,804,2.5935
13.3991,824,2.6581
13.4034,428,1.3806
13.4077,227,0.7323
13.4120,542,1.7484
13.4163,841,2.7129
13.4205,683,2.2032
13.4248,289,0.9323
13.4291,294,0.9484
13.4334,712,2.2968
13.4377,907,2.9258
13.4419,615,1.9839
13.4462,281,0.9065
13.4505,447,1.4419
13.4548,842,2.7161
13.4590,876,2.8258
13.4633,502,1.6194
13.4676,317,1.0226
13.4719,651,2.1000
13.4762,986,3.1806
13.4804,895,2.8871
13.4847,552,1.7806
13.4890,575,1.8548
13.4933,973,3.1387
13.4975,994,3.2065
13.5018,585,1.8871
13.5061,122,0.3935
13.5103,238,0.7677
13.5146,647,2.0871
13.5189,700,2.2581
13.5232,335,1.0806
13.5275,138,0.4452
13.5318,445,1.4355
13.5360,744,2.4000
13.5403,603,1.9452
13.5446,195,0.6290
13.5488,148,0.4774
13.5531,540,1.7419
13.5574,729,2.3516
13.5617,434,1.4000
13.5660,86,0.2774
13.5703,244,0.7871
13.5745,675,2.1774
13.5788,735,2.3710
13.5831,364,1.1742
13.5873,151,0.4871
13.5916,456,1.4710
13.5959,790,2.5484
13.6002,671,2.1645
13.6044,273,0.8806
13.6087,227,0.7323
13.6130,619,1.9968
13.6173,822,2.6516
13.6216,544,1.7548
13.6258,194,0.6258
13.6301,335,1.0806
13.6344,741,2.3903
13.6387,793,2.5581
13.6429,410,1.3226
13.6472,187,0.6032
13.6515,485,1.5645
13.6560,814,2.6258
13.6609,607,1.9581
13.6654,228,0.7355
13.6697,313,1.0097
13.6739,710,2.2903
13.6782,811,2.6161
13.6824,465,1.5000
13.6867,202,0.6516
13.6909,447,1.4419
13.6952,812,2.6194
13.6994,770,2.4839
13.7036,367,1.1839
13.7079,230,0.7419
13.7122,588,1.8968
13.7164,865,2.7903
13.7207,681,2.1968
13.7249,290,0.9355
13.7292,320,1.0323
13.7334,722,2.3290
13.7377,867,2.7968
13.7419,554,1.7871
13.7462,241,0.7774
13.7504,430,1.3871
13.7547,809,2.6097
13.7589,810,2.6129
13.7632,415,1.3387
13.7676,229,0.7387
13.7719,571,1.8419
13.7763,851,2.7452
13.7805,666,2.1484
13.7848,272,0.8774
13.7891,294,0.9484
13.7934,701,2.2613
13.7977,846,2.7290
13.8020,527,1.7000
13.8062,233,0.7516
13.8105,439,1.4161
13.8148,823,2.6548
13.8191,794,2.5613
13.8234,391,1.2613
13.8277,234,0.7548
13.8320,575,1.8548
13.8363,849,2.7387
13.8405,656,2.1161
13.8448,271,0.8742
13.8491,298,0.9613
13.8534,693,2.2355
13.8577,822,2.6516
13.8621,479,1.5452
13.8663,199,0.6419
13.8706,433,1.3968
13.8748,814,2.6258
13.8791,792,2.5548
13.8833,392,1.2645
13.8876,233,0.7516
13.8918,569,1.8355
13.8961,850,2.7419
13.9003,675,2.1774
13.9046,273,0.8806
13.9088,271,0.8742
13.9130,668,2.1548
13.9173,836,2.6968
13.9215,541,1.7452
13.9259,212,0.6839
13.9301,384,1.2387
13.9343,770,2.4839
13.9387,782,2.5226
13.9432,382,1.2323
13.9474,202,0.6516
13.9517,516,1.6645
13.9560,780,2.5161
13.9607,538,1.7355
13.9653,106,0.3419
13.9702,267,0.8613
13.9744,642,2.0710
13.9787,633,2.0419
13.9830,228,0.7355
13.9873,40,0.1290
13.9916,364,1.1742
13.9958,673,2.1710
14.0001,526,1.6968
14.0043,132,0.4258
14.0086,109,0.3516
14.0129,522,1.6839
14.0171,721,2.3258
14.0214,446,1.4387
14.0256,132,0.4258
14.0299,290,0.9355
14.0342,690,2.2258
14.0384,726,2.3419
14.0426,348,1.1226
14.0469,133,0.4290
14.0511,426,1.3742
14.0554,764,2.4645
14.0596,661,2.1323
14.0639,261,0.8419
14.0681,194,0.6258
14.0724,584,1.8839
14.0766,815,2.6290
14.0809,563,1.8161
14.0851,193,0.6226
14.0894,286,0.9226
14.0936,693,2.2355
14.0979,786,2.5355
14.1021,425,1.3710
14.1064,164,0.5290
14.1107,419,1.3516
14.1149,777,2.5065
14.1191,709,2.2871
14.1234,284,0.9161
14.1277,158,0.5097
14.1319,528,1.7032
14.1362,787,2.5387
14.1404,564,1.8194
14.1447,158,0.5097
14.1489,193,0.6226
14.1532,604,1.9484
14.1574,741,2.3903
14.1616,408,1.3161
14.1660,104,0.3355
14.1702,317,1.0226
14.1745,695,2.2419
14.1788,664,2.1419
14.1831,246,0.7935
14.1874,94,0.3032
14.1916,459,1.4806
14.1960,745,2.4032
14.2002,551,1.7774
14.2045,156,0.5032
14.2088,195,0.6290
14.2131,618,1.9935
14.2173,762,2.4581
14.2216,425,1.3710
14.2259,108,0.3484
14.2302,328,1.0581
14.2345,742,2.3935
14.2388,734,2.3677
14.2430,347,1.1194
14.2473,233,0.7516
14.2516,650,2.0968
14.2559,998,3.2194
14.2602,863,2.7839
14.2645,438,1.4129
14.2688,304,0.9806
14.2730,534,1.7226
14.2773,596,1.9226
14.2816,257,0.8290
14.2859,0,0.0000
14.2902,198,0.6387
14.2945,599,1.9323
14.2987,584,1.8839
14.3030,174,0.5613
14.3073,10,0.0323
14.3116,367,1.1839
14.3159,660,2.1290
14.3201,462,1.4903
14.3244,58,0.1871
14.3287,91,0.2935
14.3330,523,1.6871
14.3373,672,2.1677
14.3415,347,1.1194
14.3458,52,0.1677
14.3501,278,0.8968
14.3544,670,2.1613
14.3587,642,2.0710
14.3629,228,0.7355
14.3672,73,0.2355
14.3715,439,1.4161
14.3758,738,2.3806
14.3801,544,1.7548
14.3844,138,0.4452
14.3887,175,0.5645
14.3930,601,1.9387
14.3973,734,2.3677
14.4016,378,1.2194
14.4060,96,0.3097
14.4103,344,1.1097
14.4146,731,2.3581
14.4189,680,2.1935
14.4232,265,0.8548
14.4275,146,0.4710
14.4317,530,1.7097
14.4360,795,2.5645
14.4403,574,1.8516
14.4446,187,0.6032
14.4489,270,0.8710
14.4532,693,2.2355
14.4575,801,2.5839
14.4618,441,1.4226
14.4661,179,0.5774
14.4704,452,1.4581
14.4747,812,2.6194
14.4790,726,2.3419
14.4833,301,0.9710
14.4876,199,0.6419
14.4919,587,1.8935
14.4962,828,2.6710
14.5005,566,1.8258
14.5047,181,0.5839
14.5090,283,0.9129
14.5133,704,2.2710
14.5176,790,2.5484
14.5219,418,1.3484
14.5262,165,0.5323
14.5305,446,1.4387
14.5348,797,2.5710
14.5391,689,2.2226
14.5434,261,0.8419
14.5477,180,0.5806
14.5520,577,1.8613
14.5563,803,2.5903
14.5611,470,1.5161
14.5655,143,0.4613
14.5698,351,1.1323
14.5741,743,2.3968
14.5784,728,2.3484
14.5827,317,1.0226
14.5869,152,0.4903
14.5912,509,1.6419
14.5954,815,2.6290
14.5997,639,2.0613
14.6039,233,0.7516
14.6082,231,0.7452
14.6125,650,2.0968
14.6167,820,2.6452
14.6210,493,1.5903
14.6253,152,0.4903
14.6305,439,1.4161
14.6348,795,2.5645
14.6390,694,2.2387
14.6433,273,0.8806
14.6476,192,0.6194
14.6518,580,1.8710
14.6561,806,2.6000
14.6604,541,1.7452
14.6646,156,0.5032
14.6690,258,0.8323
14.6736,703,2.2677
14.6779,732,2.3613
14.6823,330,1.0645
14.6866,128,0.4129
14.6909,471,1.5194
14.6951,798,2.5742
14.6994,656,2.1161
14.7037,250,0.8065
14.7080,247,0.7968
14.7123,671,2.1645
14.7166,858,2.7677
14.7209,549,1.7710
14.7252,216,0.6968
14.7295,402,1.2968
14.7338,802,2.5871
14.7381,802,2.5871
14.7424,387,1.2484
14.7467,199,0.6419
14.7510,542,1.7484
14.7553,849,2.7387
14.7596,677,2.1839
14.7639,274,0.8839
14.7682,292,0.9419
14.7725,717,2.3129
14.7768,869,2.8032
14.7811,538,1.7355
14.7854,227,0.7323
14.7897,439,1.4161
14.7940,836,2.6968
14.7982,822,2.6516
14.8025,417,1.3452
14.8068,266,0.8581
14.8111,624,2.0129
14.8154,932,3.0065
14.8197,750,2.4194
14.8240,356,1.1484
14.8283,390,1.2581
14.8325,803,2.5903
14.8368,959,3.0935
14.8411,628,2.0258
14.8454,318,1.0258
14.8497,533,1.7194
14.8540,915,2.9516
14.8584,867,2.7968
14.8628,431,1.3903
14.8672,309,0.9968
14.8715,689,2.2226
14.8758,943,3.0419
14.8801,704,2.2710
14.8844,322,1.0387
14.8886,411,1.3258
14.8929,823,2.6548
14.8971,926,2.9871
14.9018,509,1.6419
14.9062,270,0.8710
14.9105,575,1.8548
14.9147,905,2.9194
14.9190,783,2.5258
14.9233,361,1.1645
14.9275,303,0.9774
14.9318,699,2.2548
14.9361,918,2.9613
14.9403,663,2.1387
14.9446,319,1.0290
14.9489,485,1.5645
14.9531,948,3.0581
14.9574,1000,3.2258
14.9617,786,2.5355
14.9660,573,1.8484
14.9703,737,2.3774
14.9745,864,2.7871
14.9789,618,1.9935
14.9832,190,0.6129
14.9876,171,0.5516
14.9919,615,1.9839
14.9962,834,2.6903
15.0006,543,1.7516
15.0049,203,0.6548
15.0093,386,1.2452
15.0136,792,2.5548
15.0180,779,2.5129
15.0228,325,1.0484
15.0274,240,0.7742
15.0319,666,2.1484
15.0419,388,1.2516
15.0465,193,0.6226
15.0509,551,1.7774
15.0552,847,2.7323
15.0595,655,2.1129
15.0638,253,0.8161
15.0680,287,0.9258
15.0724,719,2.3194
15.0767,856,2.7613
15.0809,512,1.6516
15.0852,201,0.6484
15.0894,409,1.3194
15.0937,802,2.5871
15.0979,797,2.5710
15.1022,389,1.2548
15.1064,208,0.6710
15.1106,540,1.7419
15.1149,845,2.7258
15.1191,692,2.2323
15.1234,278,0.8968
15.1276,253,0.8161
15.1318,655,2.1129
15.1361,855,2.7581
15.1403,569,1.8355
15.1446,215,0.6935
15.1488,352,1.1355
15.1530,759,2.4484
15.1573,824,2.6581
15.1615,450,1.4516
15.1657,208,0.6710
15.1700,494,1.5935
15.1742,850,2.7419
15.1784,771,2.4871
15.1827,354,1.1419
15.1870,254,0.8194
15.1913,641,2.0677
15.1956,882,2.8452
15.1999,635,2.0484
15.2042,251,0.8097
15.2085,351,1.1323
15.2128,767,2.4742
15.2171,849,2.7387
15.2213,476,1.5355
15.2256,216,0.6968
15.2299,493,1.5903
15.2342,843,2.7194
15.2385,740,2.3871
15.2428,313,1.0097
15.2471,226,0.7290
15.2514,612,1.9742
15.2557,838,2.7032
15.2599,574,1.8516
15.2642,197,0.6355
15.2685,304,0.9806
15.2728,718,2.3161
15.2771,785,2.5323
15.2814,403,1.3000
15.2857,164,0.5290
15.2900,466,1.5032
15.2943,827,2.6677
15.2986,730,2.3548
15.3029,318,1.0258
15.3072,258,0.8323
15.3115,663,2.1387
15.3157,884,2.8516
15.3200,610,1.9677
15.3243,244,0.7871
15.3286,377,1.2161
15.3329,786,2.5355
15.3372,844,2.7226
15.3415,455,1.4677
15.3458,229,0.7387
15.3501,537,1.7323
15.3544,870,2.8065
15.3587,740,2.3871
15.3630,314,1.0129
15.3673,274,0.8839
15.3716,684,2.2065
15.3759,878,2.8323
15.3802,578,1.8645
15.3845,228,0.7355
15.3888,387,1.2484
15.3931,789,2.5452
15.3973,823,2.6548
15.4016,431,1.3903
15.4059,218,0.7032
15.4102,539,1.7387
15.4145,857,2.7645
15.4188,710,2.2903
15.4231,291,0.9387
15.4274,270,0.8710
15.4317,676,2.1806
15.4360,853,2.7516
15.4403,542,1.7484
15.4446,200,0.6452
15.4488,373,1.2032
15.4532,780,2.5161
15.4585,709,2.2871
15.4628,278,0.8968
15.4672,223,0.7194
15.4715,625,2.0161
15.4760,823,2.6548
15.4804,503,1.6226
15.4847,174,0.5613
15.4889,356,1.1484
15.4932,751,2.4226
15.4974,756,2.4387
15.5017,353,1.1387
15.5060,161,0.5194
15.5102,491,1.5839
15.5145,801,2.5839
15.5188,641,2.0677
15.5231,234,0.7548
15.5274,227,0.7323
15.5317,642,2.0710
15.5362,811,2.6161
15.5405,480,1.5484
15.5448,176,0.5677
15.5491,400,1.2903
15.5533,790,2.5484
15.5576,766,2.4710
15.5618,359,1.1581
15.5661,201,0.6484
15.5704,562,1.8129
15.5747,860,2.7742
15.5789,673,2.1710
15.5833,261,0.8419
15.5875,277,0.8935
15.5918,696,2.2452
15.5961,856,2.7613
15.6004,525,1.6935
15.6047,207,0.6677
15.6090,412,1.3290
15.6132,801,2.5839
15.6175,788,2.5419
15.6219,377,1.2161
15.6262,222,0.7161
15.6305,585,1.8871
15.6348,876,2.8258
15.6391,678,2.1871
15.6434,281,0.9065
15.6477,324,1.0452
15.6520,740,2.3871
15.6562,872,2.8129
15.6605,528,1.7032
15.6649,240,0.7742
15.6691,495,1.5968
15.6734,898,2.8968
15.6777,897,2.8935
15.6821,536,1.7290
15.6864,502,1.6194
15.6908,964,3.1097
15.6951,1003,3.2355
15.6994,922,2.9742
15.7039,435,1.4032
15.7082,376,1.2129
15.7125,729,2.3516
15.7169,800,2.5806
15.7212,442,1.4258
15.7255,243,0.7839
15.7299,577,1.8613
15.7342,911,2.9387
15.7385,769,2.4806
15.7429,351,1.1323
15.7472,340,1.0968
15.7515,769,2.4806
15.7562,920,2.9677
15.7606,560,1.8065
15.7651,285,0.9194
15.7695,571,1.8419
15.7738,931,3.0032
15.7782,822,2.6516
15.7826,398,1.2839
15.7870,362,1.1677
15.7913,770,2.4839
15.7956,963,3.1065
15.7998,663,2.1387
15.8041,303,0.9774
15.8085,456,1.4710
15.8128,853,2.7516
15.8170,877,2.8290
15.8214,473,1.5258
15.8257,270,0.8710
15.8300,598,1.9290
15.8343,910,2.9355
15.8386,744,2.4000
15.8429,320,1.0323
15.8472,304,0.9806
15.8515,708,2.2839
15.8558,872,2.8129
15.8601,549,1.7710
15.8644,224,0.7226
15.8687,420,1.3548
15.8730,812,2.6194
15.8773,804,2.5935
15.8816,393,1.2677
15.8859,226,0.7290
15.8902,582,1.8774
15.8945,870,2.8065
15.8988,672,2.1677
15.9031,271,0.8742
15.9074,308,0.9935
15.9117,728,2.3484
15.9160,869,2.8032
15.9203,531,1.7129
15.9246,230,0.7419
15.9289,460,1.4839
15.9332,836,2.6968
15.9375,792,2.5548
15.9418,380,1.2258
15.9461,244,0.7871
15.9504,612,1.9742
15.9547,874,2.8194
15.9590,653,2.1065
15.9633,252,0.8129
15.9676,309,0.9968
15.9719,719,2.3194
15.9762,821,2.6484
15.9805,458,1.4774
15.9848,171,0.5516
15.9891,428,1.3806
15.9934,789,2.5452
15.9977,709,2.2871
16.0020,288,0.9290
16.0063,183,0.5903
16.0106,566,1.8258
16.0149,804,2.5935
16.0192,555,1.7903
16.0235,181,0.5839
16.0278,280,0.9032
16.0321,698,2.2516
16.0364,771,2.4871
16.0407,387,1.2484
16.0450,131,0.4226
16.0493,410,1.3226
16.0536,763,2.4613
16.0579,662,2.1355
16.0622,244,0.7871
16.0665,167,0.5387
16.0708,565,1.8226
16.0751,783,2.5258
16.0794,506,1.6323
16.0837,152,0.4903
16.0880,295,0.9516
16.0923,707,2.2806
16.0966,754,2.4323
16.1009,363,1.1710
16.1052,140,0.4516
16.1095,452,1.4581
16.1138,782,2.5226
16.1181,648,2.0903
16.1224,238,0.7677
16.1267,206,0.6645
16.1310,609,1.9645
16.1353,797,2.5710
16.1396,489,1.5774
16.1439,142,0.4581
16.1482,313,1.0097
16.1525,713,2.3000
16.1568,732,2.3613
16.1611,331,1.0677
16.1654,136,0.4387
16.1697,469,1.5129
16.1740,775,2.5000
16.1783,608,1.9613
16.1826,193,0.6226
16.1870,195,0.6290
16.1913,616,1.9871
16.1957,773,2.4935
16.2000,439,1.4161
16.2043,132,0.4258
16.2087,358,1.1548
16.2130,737,2.3774
16.2173,682,2.2000
16.2217,262,0.8452
16.2261,151,0.4871
16.2304,537,1.7323
16.2347,779,2.5129
16.2391,524,1.6903
16.2434,153,0.4935
16.2477,268,0.8645
16.2521,685,2.2097
16.2564,746,2.4065
16.2608,357,1.1516
16.2651,134,0.4323
16.2694,442,1.4258
16.2737,774,2.4968
16.2781,627,2.0226
16.2824,217,0.7000
16.2868,208,0.6710
16.2910,626,2.0194
16.2954,806,2.6000
16.2997,494,1.5935
16.3040,172,0.5548
16.3082,366,1.1806
16.3125,769,2.4806
16.3169,766,2.4710
16.3211,359,1.1581
16.3254,190,0.6129
16.3297,542,1.7484
16.3340,846,2.7290
16.3383,665,2.1452
16.3426,258,0.8323
16.3469,275,0.8871
16.3512,688,2.2194
16.3555,839,2.7065
16.3600,490,1.5806
16.3644,196,0.6323
16.3687,446,1.4387
16.3730,811,2.6161
16.3773,740,2.3871
16.3816,315,1.0161
16.3860,211,0.6806
16.3903,601,1.9387
16.3946,845,2.7258
16.3989,601,1.9387
16.4032,229,0.7387
16.4075,338,1.0903
16.4118,756,2.4387
16.4161,835,2.6935
16.4204,461,1.4871
16.4247,223,0.7194
16.4290,536,1.7290
16.4333,920,2.9677
16.4377,842,2.7161
16.4420,478,1.5419
16.4514,1000,3.2258
16.4557,1001,3.2290
16.4600,870,2.8065
16.4643,444,1.4323
16.4685,462,1.4903
16.4728,751,2.4226
16.4770,707,2.2806
16.4813,320,1.0323
16.4856,201,0.6484
16.4899,580,1.8710
16.4941,862,2.7806
16.4984,655,2.1129
16.5027,257,0.8290
16.5070,301,0.9710
16.5112,715,2.3065
16.5155,852,2.7484
16.5198,508,1.6387
16.5241,216,0.6968
16.5284,452,1.4581
16.5327,836,2.6968
16.5370,797,2.5710
16.5413,378,1.2194
16.5456,253,0.8161
16.5499,626,2.0194
16.5542,896,2.8903
16.5585,673,2.1710
16.5628,282,0.9097
16.5671,354,1.1419
16.5714,766,2.4710
16.5757,877,2.8290
16.5800,518,1.6710
16.5843,239,0.7710
16.5887,506,1.6323
16.5930,869,2.8032
16.5975,774,2.4968
16.6018,352,1.1355
16.6061,290,0.9355
16.6104,690,2.2258
16.6146,911,2.9387
16.6190,641,2.0677
16.6233,281,0.9065
16.6276,421,1.3581
16.6319,827,2.6677
16.6362,874,2.8194
16.6405,477,1.5387
16.6448,259,0.8355
16.6491,580,1.8710
16.6535,917,2.9581
16.6579,748,2.4129
16.6623,332,1.0710
16.6668,362,1.1677
16.6711,782,2.5226
16.6754,917,2.9581
16.6797,567,1.8290
16.6841,272,0.8774
16.6884,529,1.7065
16.6927,899,2.9000
16.6970,838,2.7032
16.7013,416,1.3419
16.7056,294,0.9484
16.7098,666,2.1484
16.7141,918,2.9613
16.7184,686,2.2129
16.7226,284,0.9161
16.7269,344,1.1097
16.7312,752,2.4258
16.7355,858,2.7677
16.7398,496,1.6000
16.7440,202,0.6516
16.7483,442,1.4258
16.7526,810,2.6129
16.7569,752,2.4258
16.7612,325,1.0484
16.7655,204,0.6581
16.7698,570,1.8387
16.7740,826,2.6645
16.7783,605,1.9516
16.7826,216,0.6968
16.7869,281,0.9065
16.7912,694,2.2387
16.7955,802,2.5871
16.7997,445,1.4355
16.8040,153,0.4935
16.8083,396,1.2774
16.8126,765,2.4677
16.8168,712,2.2968
16.8211,296,0.9548
16.8254,163,0.5258
16.8296,530,1.7097
16.8339,795,2.5645
16.8382,579,1.8677
16.8431,160,0.5161
16.8474,299,0.9645
16.8517,707,2.2806
16.8560,750,2.4194
16.8602,364,1.1742
16.8645,141,0.4548
16.8688,451,1.4548
16.8731,784,2.5290
16.8773,662,2.1355
16.8816,250,0.8065
16.8859,218,0.7032
16.8906,633,2.0419
16.8949,801,2.5839
16.8991,490,1.5806
16.9034,161,0.5194
16.9076,340,1.0968
16.9119,740,2.3871
16.9162,753,2.4290
16.9204,354,1.1419
16.9247,157,0.5065
16.9290,488,1.5742
16.9333,802,2.5871
16.9376,652,2.1032
16.9418,244,0.7871
16.9461,227,0.7323
16.9504,639,2.0613
16.9547,824,2.6581
16.9589,523,1.6871
16.9632,181,0.5839
16.9675,345,1.1129
16.9718,752,2.4258
16.9761,765,2.4677
16.9805,359,1.1581
16.9848,171,0.5516
16.9891,520,1.6774
16.9935,823,2.6548
16.9978,637,2.0548
17.0023,233,0.7516
17.0067,310,1.0000
17.0110,732,2.3613
17.0153,844,2.7226
17.0196,502,1.6194
17.0239,233,0.7516
17.0281,491,1.5839
17.0324,868,2.8000
17.0367,813,2.6226
17.0410,399,1.2871
17.0453,278,0.8968
17.0495,651,2.1000
17.0538,910,2.9355
17.0581,688,2.2194
17.0623,297,0.9581
17.0666,353,1.1387
17.0709,763,2.4613
17.0752,879,2.8355
17.0794,526,1.6968
17.0837,231,0.7452
17.0882,488,1.5742
17.0925,850,2.7419
17.0968,774,2.4968
17.1010,355,1.1452
17.1053,247,0.7968
17.1096,628,2.0258
17.1139,874,2.8194
17.1182,635,2.0484
17.1224,255,0.8226
17.1267,341,1.1000
17.1310,769,2.4806
17.1352,891,2.8742
17.1395,558,1.8000
17.1438,331,1.0677
17.1481,660,2.1290
17.1523,1003,3.2355
17.1566,1002,3.2323
17.1609,794,2.5613
17.1652,570,1.8387
17.1695,709,2.2871
17.1738,805,2.5968
17.1781,552,1.7806
17.1823,195,0.6290
17.1866,299,0.9645
17.1908,735,2.3710
17.1951,851,2.7452
17.1994,487,1.5710
17.2037,198,0.6387
17.2080,443,1.4290
17.2122,813,2.6226
17.2165,753,2.4290
17.2208,335,1.0806
17.2251,211,0.6806
17.2293,585,1.8871
17.2336,849,2.7387
17.2379,625,2.0161
17.2421,232,0.7484
17.2464,288,0.9290
17.2507,701,2.2613
17.2550,820,2.6452
17.2594,447,1.4419
17.2638,169,0.5452
17.2681,439,1.4161
17.2724,800,2.5806
17.2767,710,2.2903
17.2810,293,0.9452
17.2852,203,0.6548
17.2895,591,1.9065
17.2938,836,2.6968
17.2981,587,1.8935
17.3024,208,0.6710
17.3066,299,0.9645
17.3108,713,2.3000
17.3151,814,2.6258
17.3194,445,1.4355
17.3237,175,0.5645
17.3279,437,1.4097
17.3322,801,2.5839
17.3364,734,2.3677
17.3407,308,0.9935
17.3450,190,0.6129
17.3493,567,1.8290
17.3535,828,2.6710
17.3578,602,1.9419
17.3621,215,0.6935
17.3663,279,0.9000
17.3706,690,2.2258
17.3748,814,2.6258
17.3791,467,1.5065
17.3834,172,0.5548
17.3876,402,1.2968
17.3919,783,2.5258
17.3962,740,2.3871
17.4006,324,1.0452
17.4049,197,0.6355
17.4092,569,1.8355
17.4135,825,2.6613
17.4178,600,1.9355
17.4221,212,0.6839
17.4264,282,0.9097
17.4307,695,2.2419
17.4350,790,2.5484
17.4393,417,1.3452
17.4436,141,0.4548
17.4479,403,1.3000
17.4522,762,2.4581
17.4565,670,2.1613
17.4609,247,0.7968
17.4652,159,0.5129
17.4694,548,1.7677
17.4737,784,2.5290
17.4780,523,1.6871
17.4823,146,0.4710
17.4866,260,0.8387
17.4909,684,2.2065
17.4953,753,2.4290
17.4995,367,1.1839
17.5039,124,0.4000
17.5081,410,1.3226
17.5124,754,2.4323
17.5167,643,2.0742
17.5210,226,0.7290
17.5252,162,0.5226
17.5295,563,1.8161
17.5338,793,2.5581
17.5380,527,1.7000
17.5423,154,0.4968
17.5466,271,0.8742
17.5508,687,2.2161
17.5551,763,2.4613
17.5595,368,1.1871
17.5639,134,0.4323
17.5682,444,1.4323
17.5725,778,2.5097
17.5768,653,2.1065
17.5811,239,0.7710
17.5854,205,0.6613
17.5897,614,1.9806
17.5939,821,2.6484
17.5982,536,1.7290
17.6025,175,0.5645
17.6068,331,1.0677
17.6111,736,2.3742
17.6154,773,2.4935
17.6196,379,1.2226
17.6240,163,0.5258
17.6282,481,1.5516
17.6324,808,2.6065
17.6367,682,2.2000
17.6410,268,0.8645
17.6453,214,0.6903
17.6496,614,1.9806
17.6538,820,2.6452
17.6581,541,1.7452
17.6624,184,0.5935
17.6667,325,1.0484
17.6710,730,2.3548
17.6753,778,2.5097
17.6795,391,1.2613
17.6838,162,0.5226
17.6881,472,1.5226
17.6923,813,2.6226
17.6966,689,2.2226
17.7009,275,0.8871
17.7052,217,0.7000
17.7094,618,1.9935
17.7137,839,2.7065
17.7179,568,1.8323
17.7222,207,0.6677
17.7265,331,1.0677
17.7308,747,2.4097
17.7350,814,2.6258
17.7393,430,1.3871
17.7436,179,0.5774
17.7478,463,1.4935
17.7521,814,2.6258
17.7563,716,2.3097
17.7606,300,0.9677
17.7649,214,0.6903
17.7691,602,1.9419
17.7734,840,2.7097
17.7777,591,1.9065
17.7819,210,0.6774
17.7862,305,0.9839
17.7904,720,2.3226
17.7947,820,2.6452
17.7990,458,1.4774
17.8033,193,0.6226
17.8076,470,1.5161
17.8119,834,2.6903
17.8162,762,2.4581
17.8205,350,1.1290
17.8248,261,0.8419
17.8291,654,2.1097
17.8334,897,2.8935
17.8376,649,2.0935
17.8419,273,0.8806
17.8463,385,1.2419
17.8506,803,2.5903
17.8549,879,2.8355
17.8591,502,1.6194
17.8634,246,0.7935
17.8677,532,1.7161
17.8720,884,2.8516
17.8763,785,2.5323
17.8806,372,1.2000
17.8849,300,0.9677
17.8893,709,2.2871
17.8936,921,2.9710
17.8979,638,2.0581
17.9022,289,0.9323
17.9064,426,1.3742
17.9107,836,2.6968
17.9150,898,2.8968
17.9192,519,1.6742
17.9235,284,0.9161
17.9278,583,1.8806
17.9320,931,3.0032
17.9363,826,2.6645
17.9405,411,1.3258
17.9448,349,1.1258
17.9490,761,2.4548
17.9533,998,3.2194
17.9575,823,2.6548
17.9618,521,1.6806
17.9661,705,2.2742
17.9704,1003,3.2355
17.9746,1003,3.2355
17.9789,916,2.9548
17.9832,527,1.7000
17.9874,570,1.8387
17.9918,836,2.6968
17.9961,746,2.4065
18.0005,351,1.1323
18.0048,307,0.9903
18.0091,729,2.3516
18.0135,950,3.0645
18.0179,659,2.1258
18.0222,302,0.9742
18.0265,466,1.5032
18.0308,876,2.8258
18.0352,895,2.8871
18.0395,490,1.5806
18.0439,308,0.9935
18.0482,665,2.1452
18.0531,969,3.1258
18.0574,729,2.3516
18.0618,352,1.1355
18.0661,464,1.4968
18.0704,881,2.8419
18.0748,953,3.0742
18.0791,566,1.8258
18.0834,336,1.0839
18.0878,653,2.1065
18.0921,988,3.1871
18.0965,846,2.7290
18.1008,434,1.4000
18.1052,420,1.3548
18.1094,831,2.6806
18.1143,986,3.1806
18.1186,637,2.0548
18.1229,355,1.1452
18.1272,609,1.9645
18.1315,982,3.1677
18.1359,906,2.9226
18.1402,490,1.5806
18.1445,386,1.2452
18.1488,776,2.5032
18.1531,997,3.2161
18.1575,746,2.4065
18.1620,375,1.2097
18.1664,530,1.7097
18.1707,939,3.0290
18.1757,912,2.9419
18.1801,496,1.6000
18.1844,384,1.2387
18.1887,765,2.4677
18.1929,997,3.2161
18.1973,771,2.4871
18.2016,390,1.2581
18.2059,494,1.5935
18.2102,904,2.9161
18.2151,952,3.0710
18.2194,548,1.7677
18.2237,365,1.1774
18.2280,704,2.2710
18.2323,996,3.2129
18.2371,780,2.5161
18.2414,391,1.2613
18.2457,471,1.5194
18.2504,915,2.9516
18.2547,957,3.0871
18.2591,560,1.8065
18.2633,331,1.0677
18.2676,639,2.0613
18.2719,965,3.1129
18.2762,824,2.6581
18.2806,399,1.2871
18.2849,367,1.1839
18.2891,773,2.4935
18.2934,959,3.0935
18.2978,649,2.0935
18.3021,302,0.9742
18.3064,484,1.5613
18.3107,891,2.8742
18.3150,904,2.9161
18.3193,491,1.5839
18.3236,304,0.9806
18.3279,650,2.0968
18.3322,954,3.0774
18.3365,775,2.5000
18.3409,354,1.1419
18.3452,366,1.1806
18.3495,785,2.5323
18.3538,936,3.0194
18.3581,591,1.9065
18.3624,272,0.8774
18.3667,493,1.5903
18.3710,883,2.8484
18.3754,848,2.7355
18.3796,427,1.3774
18.3839,282,0.9097
18.3881,644,2.0774
18.3924,926,2.9871
18.3967,716,2.3097
18.4010,300,0.9677
18.4053,338,1.0903
18.4096,754,2.4323
18.4138,886,2.8581
18.4181,543,1.7516
18.4224,237,0.7645
18.4266,455,1.4677
18.4309,846,2.7290
18.4351,825,2.6613
18.4394,407,1.3129
18.4437,244,0.7871
18.4480,598,1.9290
18.4522,892,2.8774
18.4565,698,2.2516
18.4609,278,0.8968
18.4653,325,1.0484
18.4696,739,2.3839
18.4739,861,2.7774
18.4782,508,1.6387
18.4824,212,0.6839
18.4867,436,1.4065
18.4909,815,2.6290
18.4952,777,2.5065
18.4995,356,1.1484
18.5039,216,0.6968
18.5081,585,1.8871
18.5124,861,2.7774
18.5166,658,2.1226
18.5209,261,0.8419
18.5252,306,0.9871
18.5294,723,2.3323
18.5337,872,2.8129
18.5379,538,1.7355
18.5422,223,0.7194
18.5465,433,1.3968
18.5507,822,2.6516
18.5550,808,2.6065
18.5593,394,1.2710
18.5635,225,0.7258
18.5678,575,1.8548
18.5720,875,2.8226
18.5763,706,2.2774
18.5805,297,0.9581
18.5848,304,0.9806
18.5891,721,2.3258
18.5933,894,2.8839
18.5977,571,1.8419
18.6020,239,0.7710
18.6063,446,1.4387
18.6107,846,2.7290
18.6150,841,2.7129
18.6193,425,1.3710
18.6236,256,0.8258
18.6279,612,1.9742
18.6321,892,2.8774
18.6364,691,2.2290
18.6408,280,0.9032
18.6451,325,1.0484
18.6494,740,2.3871
18.6537,863,2.7839
18.6580,508,1.6387
18.6623,208,0.6710
18.6666,442,1.4258
18.6709,821,2.6484
18.6751,775,2.5000
18.6794,358,1.1548
18.6838,227,0.7323
18.6881,601,1.9387
18.6924,858,2.7677
18.6966,629,2.0290
18.7009,234,0.7548
18.7052,302,0.9742
18.7095,720,2.3226
18.7138,848,2.7355
18.7180,512,1.6516
18.7222,238,0.7677
18.7265,511,1.6484
18.7308,947,3.0548
18.7350,977,3.1516
18.7393,658,2.1226
18.7435,538,1.7355
18.7478,807,2.6032
18.7521,898,2.8968
18.7563,554,1.7871
18.7606,115,0.3710
18.7649,156,0.5032
18.7691,597,1.9258
18.7734,763,2.4613
18.7777,445,1.4355
18.7819,132,0.4258
18.7862,333,1.0742
18.7905,714,2.3032
18.7947,700,2.2581
18.7991,286,0.9226
18.8034,120,0.3871
18.8077,477,1.5387
18.8120,766,2.4710
18.8163,568,1.8323
18.8205,164,0.5290
18.8249,201,0.6484
18.8293,627,2.0226
18.8336,745,2.4032
18.8380,384,1.2387
18.8423,97,0.3129
18.8466,359,1.1581
18.8510,732,2.3613
18.8554,640,2.0645
18.8597,213,0.6871
18.8640,132,0.4258
18.8684,537,1.7323
18.8727,754,2.4323
18.8771,466,1.5032
18.8814,111,0.3581
18.8858,271,0.8742
18.8901,680,2.1935
18.8944,697,2.2484
18.8987,294,0.9484
18.9030,96,0.3097
18.9073,432,1.3935
18.9116,748,2.4129
18.9159,586,1.8903
18.9201,180,0.5806
18.9244,162,0.5226
18.9286,569,1.8355
18.9329,759,2.4484
18.9372,461,1.4871
18.9414,123,0.3968
18.9457,283,0.9129
18.9499,695,2.2419
18.9542,731,2.3581
18.9585,338,1.0903
18.9627,123,0.3968
18.9670,436,1.4065
18.9712,776,2.5032
18.9755,657,2.1194
18.9798,238,0.7677
18.9841,183,0.5903
18.9883,584,1.8839
18.9926,801,2.5839
18.9968,528,1.7032
19.0011,163,0.5258
19.0054,292,0.9419
19.0097,700,2.2581
19.0140,752,2.4258
19.0183,362,1.1677
19.0226,123,0.3968
19.0269,425,1.3710
19.0312,753,2.4290
19.0355,619,1.9968
19.0398,196,0.6323
19.0441,143,0.4613
19.0484,548,1.7677
19.0527,748,2.4129
19.0571,428,1.3806
19.0616,87,0.2806
19.0660,302,0.9742
19.0704,697,2.2484
19.0747,659,2.1258
19.0790,243,0.7839
19.0833,93,0.3000
19.0875,460,1.4839
19.0918,740,2.3871
19.0961,531,1.7129
19.1006,116,0.3742
19.1050,199,0.6419
19.1093,620,2.0000
19.1136,712,2.2968
19.1178,346,1.1161
19.1221,77,0.2484
19.1263,335,1.0806
19.1306,703,2.2677
19.1349,636,2.0516
19.1391,224,0.7226
19.1434,107,0.3452
19.1477,484,1.5613
19.1519,752,2.4258
19.1562,523,1.6871
19.1605,130,0.4194
19.1647,191,0.6161
19.1690,614,1.9806
19.1732,741,2.3903
19.1775,386,1.2452
19.1818,96,0.3097
19.1861,333,1.0742
19.1903,714,2.3032
19.1946,675,2.1774
19.1989,258,0.8323
19.2031,112,0.3613
19.2074,481,1.5516
19.2117,756,2.4387
19.2160,540,1.7419
19.2203,137,0.4419
19.2246,188,0.6065
19.2289,607,1.9581
19.2332,732,2.3613
19.2375,377,1.2161
19.2418,84,0.2710
19.2461,327,1.0548
19.2504,704,2.2710
19.2547,646,2.0839
19.2590,229,0.7387
19.2633,101,0.3258
19.2675,475,1.5323
19.2719,730,2.3548
19.2761,501,1.6161
19.2804,108,0.3484
19.2847,178,0.5742
19.2890,597,1.9258
19.2933,695,2.2419
19.2976,330,1.0645
19.3019,53,0.1710
19.3062,313,1.0097
19.3105,685,2.2097
19.3148,609,1.9645
19.3191,195,0.6290
19.3234,96,0.3097
19.3276,486,1.5677
19.3319,740,2.3871
19.3362,496,1.6000
19.3405,117,0.3774
19.3448,207,0.6677
19.3491,622,2.0065
19.3535,693,2.2355
19.3579,291,0.9387
19.3624,58,0.1871
19.3671,425,1.3710
19.3715,720,2.3226
19.3759,498,1.6065
19.3802,98,0.3161
19.3845,155,0.5000
19.3888,575,1.8548
19.3931,688,2.2194
19.3974,329,1.0613
19.4017,43,0.1387
19.4060,291,0.9387
19.4103,673,2.1710
19.4146,620,2.0000
19.4188,206,0.6645
19.4231,80,0.2581
19.4273,450,1.4516
19.4316,723,2.3323
19.4359,528,1.7032
19.4401,151,0.4871
19.4444,239,0.7710
19.4487,706,2.2774
19.4530,903,2.9129
19.4572,638,2.0581
19.4615,398,1.2839
19.4657,612,1.9742
19.4700,837,2.7000
19.4743,627,2.0226
19.4785,141,0.4548
19.4828,0,0.0000
19.4871,368,1.1871
19.4913,673,2.1710
19.4956,501,1.6161
19.4998,112,0.3613
19.5041,143,0.4613
19.5084,571,1.8419
19.5127,717,2.3129
19.5170,385,1.2419
19.5213,71,0.2290
19.5256,286,0.9226
19.5298,682,2.2000
19.5342,655,2.1129
19.5385,238,0.7677
19.5428,88,0.2839
19.5471,460,1.4839
19.5513,746,2.4065
19.5557,538,1.7355
19.5599,139,0.4484
19.5642,180,0.5806
19.5685,605,1.9516
19.5728,737,2.3774
19.5771,389,1.2548
19.5814,93,0.3000
19.5857,328,1.0581
19.5899,716,2.3097
19.5942,680,2.1935
19.5985,259,0.8355
19.6028,118,0.3806
19.6071,491,1.5839
19.6114,768,2.4774
19.6157,552,1.7806
19.6200,158,0.5097
19.6243,217,0.7000
19.6285,639,2.0613
19.6328,765,2.4677
19.6371,414,1.3355
19.6414,122,0.3935
19.6457,367,1.1839
19.6500,751,2.4226
19.6543,703,2.2677
19.6586,283,0.9129
19.6629,158,0.5097
19.6673,548,1.7677
19.6715,804,2.5935
19.6758,567,1.8290
19.6801,183,0.5903
19.6844,269,0.8677
19.6887,689,2.2226
19.6930,789,2.5452
19.6973,421,1.3581
19.7016,152,0.4903
19.7060,433,1.3968
19.7102,791,2.5516
19.7145,699,2.2548
19.7188,279,0.9000
19.7230,186,0.6000
19.7273,571,1.8419
19.7316,809,2.6097
19.7358,560,1.8065
19.7401,174,0.5613
19.7443,250,0.8065
19.7486,663,2.1387
19.7528,767,2.4742
19.7571,403,1.3000
19.7614,118,0.3806
19.7656,361,1.1645
19.7699,739,2.3839
19.7741,687,2.2161
19.7784,268,0.8645
19.7827,126,0.4065
19.7869,495,1.5968
19.7912,770,2.4839
19.7954,565,1.8226
19.7997,166,0.5355
19.8039,200,0.6452
19.8082,619,1.9968
19.8125,759,2.4484
19.8168,416,1.3419
19.8211,115,0.3710
19.8253,338,1.0903
19.8296,728,2.3484
19.8339,695,2.2419
19.8382,282,0.9097
19.8425,133,0.4290
19.8468,503,1.6226
19.8511,783,2.5258
19.8554,567,1.8290
19.8597,171,0.5516
19.8640,221,0.7129
19.8683,640,2.0645
19.8726,766,2.4710
19.8768,415,1.3387
19.8811,124,0.4000
19.8854,365,1.1774
19.8898,746,2.4065
19.8940,693,2.2355
19.8983,274,0.8839
19.9026,145,0.4677
19.9070,529,1.7065
19.9113,786,2.5355
19.9156,548,1.7677
19.9199,160,0.5161
19.9241,236,0.7613
19.9284,654,2.1097
19.9327,756,2.4387
19.9370,393,1.2677
19.9413,117,0.3774
19.9455,371,1.1968
19.9498,743,2.3968
19.9541,682,2.2000
19.9585,247,0.7968
19.9630,162,0.5226
19.9673,568,1.8323
19.9716,780,2.5161
19.9760,498,1.6065
19.9806,131,0.4226
19.9849,315,1.0161
19.9891,714,2.3032
19.9934,729,2.3516
19.9977,327,1.0548
20.0019,131,0.4226
20.0062,461,1.4871
20.0105,782,2.5226
20.0148,629,2.0290
20.0191,217,0.7000
20.0234,216,0.6968
20.0279,648,2.0903
20.0323,804,2.5935
20.0367,448,1.4452
20.0412,154,0.4968
20.0457,451,1.4548
20.0500,810,2.6129
20.0543,705,2.2742
20.0586,284,0.9161
20.0628,199,0.6419
20.0671,591,1.9065
20.0713,822,2.6516
20.0756,569,1.8355
20.0798,184,0.5935
20.0841,272,0.8774
20.0883,687,2.2161
20.0926,786,2.5355
20.0969,418,1.3484
20.1011,150,0.4839
20.1054,415,1.3387
20.1098,790,2.5484
20.1141,709,2.2871
20.1184,291,0.9387
20.1226,189,0.6097
20.1268,571,1.8419
20.1311,831,2.6806
20.1353,599,1.9323
20.1396,208,0.6710
20.1438,281,0.9065
20.1480,714,2.3032
20.1523,877,2.8290
20.1565,578,1.8645
20.1607,335,1.0806
20.1650,636,2.0516
20.1692,1003,3.2355
20.1735,998,3.2194
20.1777,636,2.0516
20.1820,262,0.8452
20.1862,451,1.4548
20.1904,719,2.3194
20.1947,570,1.8387
20.1989,179,0.5774
20.2032,173,0.5581
20.2074,595,1.9194
20.2116,798,2.5742
20.2159,497,1.6032
20.2202,136,0.4387
20.2245,296,0.9548
20.2288,709,2.2871
20.2330,743,2.3968
20.2373,341,1.1000
20.2416,129,0.4161
20.2459,460,1.4839
20.2502,786,2.5355
20.2546,628,2.0258
20.2590,206,0.6645
20.2634,225,0.7258
20.2678,652,2.1032
20.2721,788,2.5419
20.2764,433,1.3968
20.2808,140,0.4516
20.2851,392,1.2645
20.2894,771,2.4871
20.2937,716,2.3097
20.2980,293,0.9452
20.3024,178,0.5742
20.3067,571,1.8419
20.3111,827,2.6677
20.3154,571,1.8419
20.3197,191,0.6161
20.3240,298,0.9613
20.3282,722,2.3290
20.3325,806,2.6000
20.3368,429,1.3839
20.3410,171,0.5516
20.3453,451,1.4548
20.3496,816,2.6323
20.3539,731,2.3581
20.3581,308,0.9935
20.3624,212,0.6839
20.3667,605,1.9516
20.3710,856,2.7613
20.3752,608,1.9613
20.3795,223,0.7194
20.3838,319,1.0290
20.3881,744,2.4000
20.3923,844,2.7226
20.3966,475,1.5323
20.4009,202,0.6516
20.4052,468,1.5097
20.4094,834,2.6903
20.4137,763,2.4613
20.4180,337,1.0871
20.4223,232,0.7484
20.4266,620,2.0000
20.4309,867,2.7968
20.4352,614,1.9806
20.4395,224,0.7226
20.4438,319,1.0290
20.4481,735,2.3710
20.4524,817,2.6355
20.4567,432,1.3935
20.4609,163,0.5258
20.4652,441,1.4226
20.4695,798,2.5742
20.4738,699,2.2548
20.4781,274,0.8839
20.4824,189,0.6097
20.4867,587,1.8935
20.4910,817,2.6355
20.4953,554,1.7871
20.4996,178,0.5742
20.5039,293,0.9452
20.5082,715,2.3065
20.5125,775,2.5000
20.5168,382,1.2323
20.5211,138,0.4452
20.5254,448,1.4452
20.5297,798,2.5742
20.5340,675,2.1774
20.5383,253,0.8161
20.5426,203,0.6548
20.5469,615,1.9839
20.5512,818,2.6387
20.5555,521,1.6806
20.5598,164,0.5290
20.5641,315,1.0161
20.5684,731,2.3581
20.5727,767,2.4742
20.5770,364,1.1742
20.5812,148,0.4774
20.5855,470,1.5161
20.5898,804,2.5935
20.5941,663,2.1387
20.5984,241,0.7774
20.6027,211,0.6806
20.6071,635,2.0484
20.6113,822,2.6516
20.6157,508,1.6387
20.6199,163,0.5258
20.6242,343,1.1065
20.6286,750,2.4194
20.6328,757,2.4419
20.6371,347,1.1194
20.6414,153,0.4935
20.6457,497,1.6032
20.6500,808,2.6065
20.6543,635,2.0484
20.6585,213,0.6871
20.6628,211,0.6806
20.6671,630,2.0323
20.6714,807,2.6032
20.6757,487,1.5710
20.6800,157,0.5065
20.6843,357,1.1516
20.6886,760,2.4516
20.6929,757,2.4419
20.6971,343,1.1065
20.7014,159,0.5129
20.7057,518,1.6710
20.7101,820,2.6452
20.7144,627,2.0226
20.7187,220,0.7097
20.7230,247,0.7968
20.7273,673,2.1710
20.7316,815,2.6290
20.7359,472,1.5226
20.7402,163,0.5258
20.7445,389,1.2548
20.7487,781,2.5194
20.7531,746,2.4065
20.7573,326,1.0516
20.7616,174,0.5613
20.7659,544,1.7548
20.7702,834,2.6903
20.7745,619,1.9968
20.7788,217,0.7000
20.7831,264,0.8516
20.7874,690,2.2258
20.7917,818,2.6387
20.7960,464,1.4968
20.8003,170,0.5484
20.8046,415,1.3387
20.8089,801,2.5839
20.8132,754,2.4323
20.8174,337,1.0871
20.8218,215,0.6935
20.8260,598,1.9290
20.8303,865,2.7903
20.8347,630,2.0323
20.8390,234,0.7548
20.8433,318,1.0258
20.8476,749,2.4161
20.8519,850,2.7419
20.8562,462,1.4903
20.8606,197,0.6355
20.8650,491,1.5839
20.8693,838,2.7032
20.8737,711,2.2935
20.8780,285,0.9194
20.8823,229,0.7387
20.8866,635,2.0484
20.8909,839,2.7065
20.8952,545,1.7581
20.8995,187,0.6032
20.9038,345,1.1129
20.9081,754,2.4323
20.9124,780,2.5161
20.9167,375,1.2097
20.9211,178,0.5742
20.9253,517,1.6677
20.9296,838,2.7032
20.9339,679,2.1903
20.9382,261,0.8419
20.9425,244,0.7871
20.9467,677,2.1839
20.9510,883,2.8484
20.9553,602,1.9419
20.9596,309,0.9968
20.9638,554,1.7871
20.9681,1000,3.2258
20.9724,1001,3.2290
20.9767,781,2.5194
20.9810,447,1.4419
20.9852,541,1.7452
20.9895,737,2.3774
20.9938,575,1.8548
20.9980,179,0.5774
21.0023,168,0.5419
21.0065,598,1.9290
21.0108,812,2.6194
21.0150,517,1.6677
21.0193,155,0.5000
21.0237,305,0.9839
21.0279,722,2.3290
21.0322,763,2.4613
21.0365,354,1.1419
21.0408,136,0.4387
21.0451,452,1.4581
21.0493,787,2.5387
21.0536,654,2.1097
21.0579,225,0.7258
21.0622,183,0.5903
21.0665,594,1.9161
21.0707,806,2.6000
21.0750,520,1.6774
21.0793,161,0.5194
21.0836,307,0.9903
21.0878,720,2.3226
21.0921,772,2.4903
21.0964,377,1.2161
21.1007,154,0.4968
21.1050,472,1.5226
21.1093,806,2.6000
21.1136,670,2.1613
21.1179,242,0.7806
21.1223,219,0.7065
21.1266,636,2.0516
21.1309,827,2.6677
21.1352,516,1.6645
21.1395,173,0.5581
21.1438,347,1.1194
21.1480,752,2.4258
21.1523,770,2.4839
21.1566,360,1.1613
21.1610,168,0.5419
21.1654,530,1.7097
21.1697,840,2.7097
21.1740,651,2.1000
21.1784,244,0.7871
21.1827,285,0.9194
21.1870,714,2.3032
21.1913,865,2.7903
21.1956,512,1.6516
21.2000,200,0.6452
21.2043,445,1.4355
21.2086,835,2.6935
21.2129,779,2.5129
21.2173,352,1.1355
21.2216,238,0.7677
21.2260,630,2.0323
21.2303,878,2.8323
21.2345,628,2.0258
21.2388,240,0.7742
21.2431,331,1.0677
21.2474,749,2.4161
21.2517,837,2.7000
21.2560,456,1.4710
21.2603,176,0.5677
21.2646,445,1.4355
21.2689,807,2.6032
21.2733,711,2.2935
21.2776,269,0.8677
21.2819,179,0.5774
21.2862,575,1.8548
21.2904,815,2.6290
21.2947,553,1.7839
21.2990,170,0.5484
21.3033,287,0.9258
21.3075,711,2.2935
21.3118,788,2.5419
21.3161,404,1.3032
21.3203,133,0.4290
21.3247,428,1.3806
21.3290,791,2.5516
21.3333,686,2.2129
21.3376,250,0.8065
21.3419,171,0.5516
21.3463,589,1.9000
21.3506,819,2.6419
21.3549,534,1.7226
21.3594,149,0.4806
21.3638,327,1.0548
21.3681,738,2.3806
21.3724,746,2.4065
21.3767,322,1.0387
21.3810,107,0.3452
21.3854,435,1.4032
21.3896,735,2.3710
21.3939,558,1.8000
21.3982,153,0.4935
21.4025,185,0.5968
21.4069,631,2.0355
21.4112,779,2.5129
21.4155,431,1.3903
21.4199,110,0.3548
21.4243,371,1.1968
21.4286,760,2.4516
21.4329,690,2.2258
21.4372,259,0.8355
21.4415,138,0.4452
21.4458,545,1.7581
21.4501,808,2.6065
21.4544,556,1.7935
21.4587,160,0.5161
21.4630,255,0.8226
21.4673,691,2.2290
21.4716,787,2.5387
21.4759,396,1.2774
21.4802,119,0.3839
21.4845,412,1.3290
21.4888,794,2.5613
21.4931,697,2.2484
21.4974,257,0.8290
21.5017,171,0.5516
21.5061,593,1.9129
21.5104,832,2.6839
21.5147,551,1.7774
21.5189,169,0.5452
21.5232,305,0.9839
21.5276,740,2.3871
21.5319,800,2.5806
21.5361,400,1.2903
21.5404,162,0.5226
21.5447,486,1.5677
21.5490,842,2.7161
21.5533,723,2.3323
21.5576,291,0.9387
21.5619,234,0.7548
21.5662,655,2.1129
21.5705,869,2.8032
21.5748,567,1.8290
21.5791,192,0.6194
21.5834,353,1.1387
21.5877,777,2.5065
21.5920,802,2.5871
21.5963,383,1.2355
21.6006,157,0.5065
21.6049,496,1.6000
21.6092,836,2.6968
21.6135,665,2.1452
21.6178,223,0.7194
21.6221,204,0.6581
21.6264,646,2.0839
21.6307,842,2.7161
21.6351,509,1.6419
21.6394,162,0.5226
21.6437,377,1.2161
21.6481,794,2.5613
21.6524,786,2.5355
21.6567,367,1.1839
21.6611,230,0.7419
21.6654,668,2.1548
21.6698,999,3.2226
21.6741,867,2.7968
21.6784,537,1.7323
21.6828,650,2.0968
21.6871,987,3.1839
21.6914,882,2.8452
21.6959,329,1.0613
21.7002,41,0.1323
21.7045,383,1.2355
21.7089,778,2.5097
21.7132,657,2.1194
21.7176,221,0.7129
21.7220,199,0.6419
21.7264,642,2.0710
21.7307,823,2.6548
21.7350,484,1.5613
21.7393,138,0.4452
21.7476,754,2.4323
21.7520,775,2.5000
21.7564,335,1.0806
21.7608,137,0.4419
21.7652,523,1.6871
21.7695,830,2.6774
21.7739,605,1.9516
21.7782,180,0.5806
21.7825,233,0.7516
21.7868,674,2.1742
21.7910,811,2.6161
21.7954,435,1.4032
21.7997,127,0.4097
21.8040,400,1.2903
21.8083,798,2.5742
21.8126,724,2.3355
21.8169,276,0.8903
21.8212,158,0.5097
21.8255,571,1.8419
21.8298,839,2.7065
21.8341,574,1.8516
21.8384,164,0.5290
21.8427,268,0.8645
21.8470,715,2.3065
21.8513,813,2.6226
21.8556,417,1.3452
21.8599,141,0.4548
21.8642,444,1.4323
21.8685,829,2.6742
21.8727,737,2.3774
21.8771,293,0.9452
21.8814,207,0.6677
21.8856,632,2.0387
21.8900,881,2.8419
21.8943,599,1.9323
21.8986,206,0.6645
21.9028,341,1.1000
21.9071,782,2.5226
21.9114,853,2.7516
21.9157,445,1.4355
21.9200,187,0.6032
21.9243,510,1.6452
21.9286,876,2.8258
21.9329,752,2.4258
21.9372,297,0.9581
21.9415,233,0.7516
21.9458,669,2.1581
21.9501,890,2.8710
21.9544,575,1.8548
21.9587,188,0.6065
21.9630,343,1.1065
21.9673,778,2.5097
21.9716,816,2.6323
21.9760,375,1.2097
21.9804,168,0.5419
21.9847,530,1.7097
21.9890,862,2.7806
21.9932,682,2.2000
21.9975,241,0.7774
22.0018,246,0.7935
22.0061,694,2.2387
22.0104,881,2.8419
22.0147,541,1.7452
22.0190,193,0.6226
22.0234,416,1.3419
22.0276,842,2.7161
22.0320,835,2.6935
22.0362,399,1.2871
22.0405,231,0.7452
22.0448,617,1.9903
22.0491,930,3.0000
22.0534,729,2.3516
22.0578,292,0.9419
22.0622,352,1.1355
22.0666,808,2.6065
22.0709,931,3.0032
22.0752,542,1.7484
22.0795,243,0.7839
22.0838,529,1.7065
22.0881,921,2.9710
22.0924,854,2.7548
22.0967,409,1.3194
22.1010,304,0.9806
22.1053,716,2.3097
22.1096,973,3.1387
22.1139,709,2.2871
22.1182,303,0.9774
22.1225,418,1.3484
22.1268,863,2.7839
22.1311,954,3.0774
22.1354,552,1.7806
22.1397,270,0.8710
22.1440,583,1.8806
22.1483,962,3.1032
22.1525,853,2.7516
22.1568,395,1.2742
22.1611,309,0.9968
22.1654,736,2.3742
22.1697,976,3.1484
22.1740,685,2.2097
22.1783,287,0.9258
22.1827,437,1.4097
22.1870,876,2.8258
22.1913,923,2.9774
22.1956,501,1.6161
22.1999,256,0.8258
22.2042,597,1.9258
22.2085,954,3.0774
22.2128,807,2.6032
22.2171,356,1.1484
22.2214,321,1.0355
22.2257,757,2.4419
22.2300,958,3.0903
22.2343,624,2.0129
22.2386,257,0.8290
22.2429,447,1.4419
22.2472,877,2.8290
22.2515,894,2.8839
22.2558,453,1.4613
22.2602,245,0.7903
22.2645,607,1.9581
22.2688,932,3.0065
22.2731,749,2.4161
22.2773,308,0.9935
22.2816,320,1.0323
22.2860,760,2.4516
22.2903,923,2.9774
22.2946,560,1.8065
22.2989,216,0.6968
22.3032,455,1.4677
22.3075,869,2.8032
22.3118,840,2.7097
22.3161,387,1.2484
22.3204,220,0.7097
22.3247,613,1.9774
22.3290,913,2.9452
22.3333,686,2.2129
22.3376,258,0.8323
22.3419,314,1.0129
22.3462,760,2.4516
22.3505,891,2.8742
22.3548,515,1.6613
22.3590,196,0.6323
22.3633,461,1.4871
22.3676,870,2.8065
22.3719,814,2.6258
22.3762,355,1.1452
22.3805,209,0.6742
22.3849,622,2.0065
22.3892,896,2.8903
22.3935,635,2.0484
22.3978,218,0.7032
22.4021,305,0.9839
22.4064,754,2.4323
22.4107,847,2.7323
22.4150,443,1.4290
22.4193,158,0.5097
22.4236,455,1.4677
22.4279,842,2.7161
22.4322,735,2.3710
22.4366,278,0.8968
22.4409,203,0.6548
22.4452,634,2.0452
22.4496,864,2.7871
22.4539,546,1.7613
22.4582,160,0.5161
22.4626,333,1.0742
22.4669,787,2.5387
22.4712,837,2.7000
22.4756,437,1.4097
22.4799,289,0.9323
22.4842,741,2.3903
22.4886,1003,3.2355
22.4929,986,3.1806
22.4972,634,2.0452
22.5016,482,1.5548
22.5059,693,2.2355
22.5103,728,2.3484
22.5146,354,1.1419
22.5189,71,0.2290
22.5233,379,1.2226
22.5277,796,2.5677
22.5321,713,2.3000
22.5363,263,0.8484
22.5406,169,0.5452
22.5449,593,1.9129
22.5492,845,2.7258
22.5535,569,1.8355
22.5578,165,0.5323
22.5621,287,0.9258
22.5664,731,2.3581
22.5707,806,2.6000
22.5750,396,1.2774
22.5793,131,0.4226
22.5836,459,1.4806
22.5879,837,2.7000
22.5922,711,2.2935
22.5965,260,0.8387
22.6008,196,0.6323
22.6050,640,2.0645
22.6094,880,2.8387
22.6137,578,1.8645
22.6180,192,0.6194
22.6223,354,1.1419
22.6266,798,2.5742
22.6309,848,2.7355
22.6352,427,1.3774
22.6395,196,0.6323
22.6438,532,1.7161
22.6481,882,2.8452
22.6524,726,2.3419
22.6567,275,0.8871
22.6611,265,0.8548
22.6655,723,2.3323
22.6699,896,2.8903
22.6742,530,1.7097
22.6785,194,0.6258
22.6829,447,1.4419
22.6872,861,2.7774
22.6915,817,2.6355
22.6959,368,1.1871
22.7001,230,0.7419
22.7044,635,2.0484
22.7087,926,2.9871
22.7130,681,2.1968
22.7173,255,0.8226
22.7216,333,1.0742
22.7259,782,2.5226
22.7302,906,2.9226
22.7345,514,1.6581
22.7388,215,0.6935
22.7431,499,1.6097
22.7474,887,2.8613
22.7517,807,2.6032
22.7560,349,1.1258
22.7603,238,0.7677
22.7646,651,2.1000
22.7689,907,2.9258
22.7732,631,2.0355
22.7775,210,0.6774
22.7818,311,1.0032
22.7861,749,2.4161
22.7904,833,2.6871
22.7947,425,1.3710
22.7990,145,0.4677
22.8033,451,1.4548
22.8076,829,2.6742
22.8119,715,2.3065
22.8162,260,0.8387
22.8205,183,0.5903
22.8248,613,1.9774
22.8291,854,2.7548
22.8335,537,1.7323
22.8379,152,0.4903
22.8422,323,1.0419
22.8465,764,2.4645
22.8509,783,2.5258
22.8552,340,1.0968
22.8595,135,0.4355
22.8639,510,1.6452
22.8682,840,2.7097
22.8725,631,2.0355
22.8769,184,0.5935
22.8812,218,0.7032
22.8855,679,2.1903
22.8899,822,2.6516
22.8942,441,1.4226
22.8985,124,0.4000
22.9029,400,1.2903
22.9072,804,2.5935
22.9115,726,2.3419
22.9160,261,0.8419
22.9203,171,0.5516
22.9246,600,1.9355
22.9290,844,2.7226
22.9333,547,1.7645
22.9376,149,0.4806
22.9419,302,0.9742
22.9462,743,2.3968
22.9505,795,2.5645
22.9548,371,1.1968
22.9592,133,0.4290
22.9636,503,1.6226
22.9680,840,2.7097
22.9723,652,2.1032
22.9767,209,0.6742
22.9810,232,0.7484
22.9853,680,2.1935
22.9896,841,2.7129
22.9939,478,1.5419
22.9982,141,0.4548
23.0025,383,1.2355
23.0069,799,2.5774
23.0112,756,2.4387
23.0155,307,0.9903
23.0198,162,0.5226
23.0241,563,1.8161
23.0284,850,2.7419
23.0327,607,1.9581
23.0370,190,0.6129
23.0413,262,0.8452
23.0456,708,2.2839
23.0498,830,2.6774
23.0541,443,1.4290
23.0585,140,0.4516
23.0628,423,1.3645
23.0671,814,2.6258
23.0714,733,2.3645
23.0757,280,0.9032
23.0800,167,0.5387
23.0843,582,1.8774
23.0886,845,2.7258
23.0929,578,1.8645
23.0971,170,0.5484
23.1015,275,0.8871
23.1058,718,2.3161
23.1101,802,2.5871
23.1144,401,1.2935
23.1187,135,0.4355
23.1230,447,1.4419
23.1273,819,2.6419
23.1316,703,2.2677
23.1360,244,0.7871
23.1403,191,0.6161
23.1446,625,2.0161
23.1490,835,2.6935
23.1533,527,1.7000
23.1576,167,0.5387
23.1620,356,1.1484
23.1663,778,2.5097
23.1706,785,2.5323
23.1749,351,1.1323
23.1793,159,0.5129
23.1836,533,1.7194
23.1880,843,2.7194
23.1923,635,2.0484
23.1966,205,0.6613
23.2009,261,0.8419
23.2053,718,2.3161
23.2096,851,2.7452
23.2140,466,1.5032
23.2183,165,0.5323
23.2227,450,1.4516
23.2270,841,2.7129
23.2314,743,2.3968
23.2357,296,0.9548
23.2401,220,0.7097
23.2444,641,2.0677
23.2487,872,2.8129
23.2529,594,1.9161
23.2572,229,0.7387
23.2615,412,1.3290
23.2659,908,2.9290
23.2702,996,3.2129
23.2745,720,2.3226
23.2788,545,1.7581
23.2831,840,2.7097
23.2874,993,3.2032
23.2917,663,2.1387
23.2960,170,0.5484
23.3003,169,0.5452
23.3046,634,2.0452
23.3089,835,2.6935
23.3132,519,1.6742
23.3175,175,0.5645
23.3218,376,1.2129
23.3261,789,2.5452
23.3304,787,2.5387
23.3346,360,1.1613
23.3390,179,0.5774
23.3432,541,1.7452
23.3476,842,2.7161
23.3519,649,2.0935
23.3561,231,0.7452
23.3604,257,0.8290
23.3648,692,2.2323
23.3691,839,2.7065
23.3734,487,1.5710
23.3777,174,0.5613
23.3820,407,1.3129
23.3863,795,2.5645
23.3906,751,2.4226
23.3949,330,1.0645
23.3991,191,0.6161
23.4035,568,1.8323
23.4078,834,2.6903
23.4121,608,1.9613
23.4163,213,0.6871
23.4206,278,0.8968
23.4249,700,2.2581
23.4292,813,2.6226
23.4335,452,1.4581
23.4378,176,0.5677
23.4422,466,1.5032
23.4466,879,2.8355
23.4509,815,2.6290
23.4552,414,1.3355
23.4596,373,1.2032
23.4639,806,2.6000
23.4682,999,3.2226
23.4726,776,2.5032
23.4769,443,1.4290
23.4812,615,1.9839
23.4855,997,3.2161
23.4899,976,3.1484
23.4942,586,1.8903
23.4986,376,1.2129
23.5029,705,2.2742
23.5073,990,3.1935
23.5116,785,2.5323
23.5164,350,1.1290
23.5207,455,1.4677
23.5250,884,2.8516
23.5294,964,3.1097
23.5339,574,1.8516
23.5382,352,1.1355
23.5426,680,2.1935
23.5469,998,3.2194
23.5512,856,2.7613
23.5555,428,1.3806
23.5599,423,1.3645
23.5643,832,2.6839
23.5688,980,3.1613
23.5731,621,2.0032
23.5774,317,1.0226
23.5818,565,1.8226
23.5861,942,3.0387
23.5904,873,2.8161
23.5947,451,1.4548
23.5989,338,1.0903
23.6032,728,2.3484
23.6075,995,3.2097
23.6118,774,2.4968
23.6161,382,1.2323
23.6203,456,1.4710
23.6246,879,2.8355
23.6288,993,3.2032
23.6331,650,2.0968
23.6374,354,1.1419
23.6417,585,1.8871
23.6459,946,3.0516
23.6502,874,2.8194
23.6545,423,1.3645
23.6588,272,0.8774
23.6630,634,2.0452
23.6673,914,2.9484
23.6716,686,2.2129
23.6758,264,0.8516
23.6801,304,0.9806
23.6844,714,2.3032
23.6886,846,2.7290
23.6930,479,1.5452
23.6972,170,0.5484
23.7015,398,1.2839
23.7058,784,2.5290
23.7101,737,2.3774
23.7144,295,0.9516
23.7186,139,0.4484
23.7229,506,1.6323
23.7271,794,2.5613
23.7314,588,1.8968
23.7357,164,0.5290
23.7400,204,0.6581
23.7443,631,2.0355
23.7486,763,2.4613
23.7530,392,1.2645
23.7573,91,0.2935
23.7616,343,1.1065
23.7659,729,2.3516
23.7702,663,2.1387
23.7745,230,0.7419
23.7788,104,0.3355
23.7831,496,1.6000
23.7873,763,2.4613
23.7917,516,1.6645
23.7960,109,0.3516
23.8003,203,0.6548
23.8046,637,2.0548
23.8089,729,2.3516
23.8132,337,1.0871
23.8175,65,0.2097
23.8218,353,1.1387
23.8261,732,2.3613
23.8304,631,2.0355
23.8347,190,0.6129
23.8390,100,0.3226
23.8433,513,1.6548
23.8476,757,2.4419
23.8519,479,1.5452
23.8562,88,0.2839
23.8606,230,0.7419
23.8650,667,2.1516
23.8694,699,2.2548
23.8737,272,0.8774
23.8781,62,0.2000
23.8824,411,1.3258
23.8867,745,2.4032
23.8910,568,1.8323
23.8953,127,0.4097
23.8996,139,0.4484
23.9039,572,1.8452
23.9082,735,2.3710
23.9125,379,1.2226
23.9168,48,0.1548
23.9211,276,0.8903
23.9254,699,2.2548
23.9297,681,2.1968
23.9340,240,0.7742
23.9383,67,0.2161
23.9426,444,1.4323
23.9469,748,2.4129
23.9512,538,1.7355
23.9555,114,0.3677
23.9598,153,0.4935
23.9641,590,1.9032
23.9684,730,2.3548
23.9727,369,1.1903
23.9770,54,0.1742
23.9813,303,0.9774
23.9856,701,2.2613
23.9899,648,2.0903
23.9942,209,0.6742
23.9985,70,0.2258
24.0028,464,1.4968
24.0071,743,2.3968
24.0114,515,1.6613
24.0157,128,0.4129
24.0200,221,0.7129
24.0243,687,2.2161
24.0285,851,2.7452
24.0328,543,1.7516
24.0372,336,1.0839
24.0416,678,2.1871
24.0460,1001,3.2290
24.0503,756,2.4387
24.0546,138,0.4452
24.0590,21,0.0677
24.0633,440,1.4194
24.0677,686,2.2129
24.0720,382,1.2323
24.0763,26,0.0839
24.0807,208,0.6710
24.0850,642,2.0710
24.0893,655,2.1129
24.0937,225,0.7258
24.0980,34,0.1097
24.1023,394,1.2710
24.1067,708,2.2839
24.1110,504,1.6258
24.1153,80,0.2581
24.1197,120,0.3871
24.1240,565,1.8226
24.1283,701,2.2613
24.1327,323,1.0419
24.1370,24,0.0774
24.1413,292,0.9419
24.1457,684,2.2065
24.1499,609,1.9645
24.1542,171,0.5516
24.1585,61,0.1968
24.1628,470,1.5161
24.1671,737,2.3774
24.1714,484,1.5613
24.1757,83,0.2677
24.1800,175,0.5645
24.1843,615,1.9839
24.1886,712,2.2968
24.1929,322,1.0387
24.1972,53,0.1710
24.2015,349,1.1258
24.2059,730,2.3548
24.2102,622,2.0065
24.2145,183,0.5903
24.2188,106,0.3419
24.2231,531,1.7129
24.2274,766,2.4710
24.2316,483,1.5581
24.2360,104,0.3355
24.2403,234,0.7548
24.2446,678,2.1871
24.2489,735,2.3710
24.2532,329,1.0613
24.2575,92,0.2968
24.2618,416,1.3419
24.2661,780,2.5161
24.2704,645,2.0806
24.2746,210,0.6774
24.2789,159,0.5129
24.2833,589,1.9000
24.2876,803,2.5903
24.2919,501,1.6161
24.2962,139,0.4484
24.3005,298,0.9613
24.3048,727,2.3452
24.3091,762,2.4581
24.3134,338,1.0903
24.3176,114,0.3677
24.3219,445,1.4355
24.3262,781,2.5194
24.3305,619,1.9968
24.3348,180,0.5806
24.3392,161,0.5194
24.3435,595,1.9194
24.3479,773,2.4935
24.3522,427,1.3774
24.3565,90,0.2903
24.3609,311,1.0032
24.3652,721,2.3258
24.3695,691,2.2290
24.3739,248,0.8000
24.3782,97,0.3129
24.3825,489,1.5774
24.3869,773,2.4935
24.3912,527,1.7000
24.3956,115,0.3710
24.3999,212,0.6839
24.4042,655,2.1129
24.4086,743,2.3968
24.4129,344,1.1097
24.4172,86,0.2774
24.4216,398,1.2839
24.4259,766,2.4710
24.4303,634,2.0452
24.4346,207,0.6677
24.4389,173,0.5581
24.4432,600,1.9355
24.4476,793,2.5581
24.4519,473,1.5258
24.4562,119,0.3839
24.4606,314,1.0129
24.4650,731,2.3581
24.4694,715,2.3065
24.4737,287,0.9258
24.4780,129,0.4161
24.4823,508,1.6387
24.4867,798,2.5742
24.4910,570,1.8387
24.4954,169,0.5452
24.4996,248,0.8000
24.5039,684,2.2065
24.5082,789,2.5452
24.5125,413,1.3323
24.5168,129,0.4161
24.5211,399,1.2871
24.5254,784,2.5290
24.5297,708,2.2839
24.5340,271,0.8742
24.5383,167,0.5387
24.5426,571,1.8419
24.5469,826,2.6645
24.5512,559,1.8032
24.5555,163,0.5258
24.5598,270,0.8710
24.5641,702,2.2645
24.5684,788,2.5419
24.5727,394,1.2710
24.5770,136,0.4387
24.5813,433,1.3968
24.5856,798,2.5742
24.5899,694,2.2387
24.5942,259,0.8355
24.5985,185,0.5968
24.6028,599,1.9323
24.6071,831,2.6806
24.6114,544,1.7548
24.6157,169,0.5452
24.6200,309,0.9968
24.6243,741,2.3903
24.6285,800,2.5806
24.6329,395,1.2742
24.6371,159,0.5129
24.6414,479,1.5452
24.6459,837,2.7000
24.6502,679,2.1903
24.6546,241,0.7774
24.6589,233,0.7516
24.6632,664,2.1419
24.6676,836,2.6968
24.6719,490,1.5806
24.6763,167,0.5387
24.6806,398,1.2839
24.6849,810,2.6129
24.6892,775,2.5000
24.6936,336,1.0839
24.6979,196,0.6323
24.7023,592,1.9097
24.7066,864,2.7871
24.7109,614,1.9806
24.7153,209,0.6742
24.7196,303,0.9774
24.7239,737,2.3774
24.7282,828,2.6710
24.7326,422,1.3613
24.7370,169,0.5452
24.7413,483,1.5581
24.7456,840,2.7097
24.7499,710,2.2903
24.7542,276,0.8903
24.7586,235,0.7581
24.7630,668,2.1548
24.7674,854,2.7548
24.7717,522,1.6839
24.7761,205,0.6613
24.7804,442,1.4258
24.7847,876,2.8258
24.7890,906,2.9226
24.7933,541,1.7452
24.7976,459,1.4806
24.8019,904,2.9161
24.8062,1003,3.2355
24.8105,879,2.8355
24.8148,321,1.0355
24.8191,237,0.7645
24.8234,638,2.0581
24.8277,785,2.5323
24.8320,433,1.3968
24.8363,143,0.4613
24.8406,402,1.2968
24.8449,801,2.5839
24.8492,743,2.3968
24.8535,306,0.9871
24.8578,178,0.5742
24.8621,571,1.8419
24.8664,845,2.7258
24.8707,603,1.9452
24.8750,195,0.6290
24.8793,276,0.8903
24.8836,717,2.3129
24.8878,829,2.6742
24.8921,447,1.4419
24.8965,154,0.4968
24.9008,433,1.3968
24.9051,815,2.6290
24.9094,726,2.3419
24.9137,283,0.9129
24.9180,195,0.6290
24.9223,603,1.9452
24.9266,849,2.7387
24.9309,577,1.8613
24.9352,188,0.6065
24.9395,315,1.0161
24.9438,749,2.4161
24.9482,816,2.6323
24.9525,403,1.3000
24.9568,169,0.5452
24.9612,508,1.6387
24.9655,860,2.7742
24.9698,714,2.3032
24.9741,276,0.8903
24.9786,263,0.8484
24.9829,703,2.2677
24.9872,880,2.8387
24.9915,535,1.7258
24.9959,193,0.6226
25.0003,424,1.3677
25.0046,834,2.6903
25.0090,795,2.5645
25.0133,355,1.1452
25.0176,220,0.7097
25.0220,626,2.0194
25.0278,876,2.8258
25.0323,455,1.4677
25.0368,210,0.6774
25.0414,574,1.8516
25.0459,912,2.9419
25.0505,661,2.1323
25.0550,247,0.7968
25.0593,353,1.1387
25.0636,792,2.5548
25.0679,871,2.8097
25.0722,469,1.5129
25.0765,203,0.6548
25.0809,505,1.6290
25.0852,864,2.7871
25.0895,744,2.4000
25.0937,298,0.9613
25.0980,228,0.7355
25.1024,643,2.0742
25.1067,865,2.7903
25.1110,569,1.8355
25.1153,191,0.6161
25.1195,333,1.0742
25.1239,759,2.4484
25.1282,804,2.5935
25.1324,391,1.2613
25.1367,168,0.5419
25.1410,501,1.6161
25.1454,847,2.7323
25.1497,697,2.2484
25.1540,264,0.8516
25.1583,247,0.7968
25.1626,676,2.1806
25.1669,865,2.7903
25.1712,542,1.7484
25.1755,184,0.5935
25.1798,371,1.1968
25.1841,792,2.5548
25.1884,802,2.5871
25.1927,378,1.2194
25.1970,175,0.5645
25.2013,536,1.7290
25.2056,859,2.7710
25.2099,668,2.1548
25.2142,238,0.7677
25.2185,249,0.8032
25.2228,692,2.2323
25.2271,860,2.7742
25.2314,516,1.6645
25.2357,187,0.6032
25.2399,408,1.3161
25.2443,824,2.6581
25.2486,791,2.5516
25.2529,351,1.1323
25.2572,191,0.6161
25.2615,575,1.8548
25.2658,873,2.8161
25.2701,646,2.0839
25.2744,228,0.7355
25.2787,282,0.9097
25.2830,720,2.3226
25.2873,850,2.7419
25.2920,431,1.3903
25.2963,172,0.5548
25.3006,478,1.5419
25.3050,846,2.7290
25.3093,716,2.3097
25.3136,272,0.8774
25.3179,222,0.7161
25.3222,646,2.0839
25.3265,861,2.7774
25.3308,552,1.7806
25.3351,177,0.5710
25.3394,334,1.0774
25.3437,763,2.4613
25.3480,797,2.5710
25.3523,369,1.1903
25.3566,149,0.4806
25.3610,511,1.6484
25.3654,840,2.7097
25.3698,645,2.0806
25.3741,219,0.7065
25.3784,252,0.8129
25.3828,696,2.2452
25.3871,836,2.6968
25.3914,470,1.5161
25.3957,154,0.4968
25.4000,405,1.3065
25.4043,809,2.6097
25.4086,750,2.4194
25.4129,306,0.9871
25.4172,171,0.5516
25.4215,570,1.8387
25.4258,850,2.7419
25.4301,606,1.9548
25.4344,197,0.6355
25.4387,279,0.9000
25.4430,724,2.3355
25.4473,834,2.6903
25.4517,436,1.4065
25.4560,163,0.5258
25.4603,460,1.4839
25.4646,844,2.7226
25.4689,751,2.4226
25.4732,304,0.9806
25.4775,214,0.6903
25.4817,630,2.0323
25.4860,876,2.8258
25.4903,589,1.9000
25.4946,200,0.6452
25.4989,321,1.0355
25.5033,757,2.4419
25.5076,821,2.6484
25.5119,406,1.3097
25.5162,164,0.5290
25.5205,482,1.5548
25.5247,848,2.7355
25.5290,720,2.3226
25.5333,275,0.8871
25.5376,220,0.7097
25.5419,637,2.0548
25.5462,857,2.7645
25.5506,550,1.7742
25.5549,192,0.6194
25.5592,382,1.2323
25.5634,827,2.6677
25.5677,896,2.8903
25.5721,526,1.6968
25.5763,379,1.2226
25.5806,797,2.5710
25.5849,1003,3.2355
25.5892,953,3.0742
25.5935,437,1.4097
25.5978,238,0.7677
25.6021,589,1.9000
25.6064,777,2.5065
25.6107,469,1.5129
25.6150,136,0.4387
25.6193,348,1.1226
25.6236,780,2.5161
25.6279,787,2.5387
25.6322,355,1.1452
25.6365,163,0.5258
25.6408,523,1.6871
25.6451,841,2.7129
25.6494,659,2.1258
25.6537,230,0.7419
25.6581,258,0.8323
25.6625,709,2.2871
25.6670,830,2.6774
25.6714,439,1.4161
25.6757,162,0.5226
25.6801,453,1.4613
25.6844,825,2.6613
25.6887,711,2.2935
25.6931,263,0.8484
25.6975,209,0.6742
25.7018,640,2.0645
25.7062,851,2.7452
25.7105,527,1.7000
25.7149,172,0.5548
25.7192,359,1.1581
25.7235,781,2.5194
25.7279,783,2.5258
25.7322,347,1.1194
25.7365,174,0.5613
25.7409,547,1.7645
25.7452,855,2.7581
25.7496,629,2.0290
25.7540,219,0.7065
25.7583,301,0.9710
25.7626,739,2.3839
25.7670,847,2.7323
25.7713,462,1.4903
25.7756,185,0.5968
25.7799,474,1.5290
25.7842,855,2.7581
25.7885,768,2.4774
25.7928,331,1.0677
25.7971,245,0.7903
25.8014,659,2.1258
25.8057,899,2.9000
25.8100,623,2.0097
25.8143,240,0.7742
25.8186,377,1.2161
25.8229,812,2.6194
25.8272,879,2.8355
25.8315,474,1.5290
25.8358,223,0.7194
25.8401,541,1.7452
25.8444,898,2.8968
25.8487,769,2.4806
25.8530,320,1.0323
25.8573,259,0.8355
25.8616,680,2.1935
25.8660,886,2.8581
25.8702,573,1.8484
25.8745,199,0.6419
25.8788,356,1.1484
25.8831,779,2.5129
25.8874,809,2.6097
25.8917,387,1.2484
25.8960,161,0.5194
25.9003,495,1.5968
25.9046,834,2.6903
25.9089,670,2.1613
25.9132,234,0.7548
25.9176,221,0.7129
25.9219,661,2.1323
25.9262,840,2.7097
25.9304,502,1.6194
25.9347,153,0.4935
25.9390,350,1.1290
25.9433,776,2.5032
25.9476,778,2.5097
25.9519,347,1.1194
25.9562,162,0.5226
25.9605,525,1.6935
25.9648,842,2.7161
25.9691,654,2.1097
25.9734,229,0.7387
25.9777,245,0.7903
25.9820,682,2.2000
25.9863,846,2.7290
25.9906,490,1.5806
25.9949,150,0.4839
25.9992,378,1.2194
26.0035,792,2.5548
26.0078,762,2.4581
26.0121,321,1.0355
26.0164,164,0.5290
26.0207,550,1.7742
26.0250,844,2.7226
26.0293,622,2.0065
26.0336,205,0.6613
26.0379,263,0.8484
26.0422,711,2.2935
26.0465,847,2.7323
26.0508,478,1.5419
26.0551,172,0.5548
26.0594,428,1.3806
26.0637,820,2.6452
26.0680,758,2.4452
26.0723,320,1.0323
26.0766,199,0.6419
26.0809,608,1.9613
26.0852,882,2.8452
26.0895,628,2.0258
26.0938,224,0.7226
26.0981,319,1.0290
26.1025,769,2.4806
26.1068,858,2.7677
26.1110,457,1.4742
26.1153,181,0.5839
26.1196,465,1.5000
26.1239,849,2.7387
26.1281,759,2.4484
26.1324,317,1.0226
26.1367,212,0.6839
26.1409,618,1.9935
26.1452,886,2.8581
26.1495,626,2.0194
26.1537,234,0.7548
26.1584,362,1.1677
26.1627,802,2.5871
26.1670,858,2.7677
26.1713,440,1.4194
26.1756,204,0.6581
26.1799,528,1.7032
26.1842,873,2.8161
26.1885,723,2.3323
26.1928,284,0.9161
26.1970,243,0.7839
26.2014,669,2.1581
26.2057,871,2.8097
26.2100,545,1.7581
26.2143,188,0.6065
26.2186,373,1.2032
26.2229,801,2.5839
26.2273,813,2.6226
26.2315,378,1.2194
26.2359,179,0.5774
26.2402,545,1.7581
26.2445,866,2.7935
26.2488,670,2.1613
26.2534,228,0.7355
26.2577,303,0.9774
26.2622,784,2.5290
26.2666,927,2.9903
26.2710,584,1.8839
26.2753,397,1.2806
26.2796,764,2.4645
26.2839,999,3.2226
26.2882,831,2.6806
26.2925,250,0.8065
26.2968,107,0.3452
26.3011,525,1.6935
26.3054,771,2.4871
26.3098,478,1.5419
26.3141,115,0.3710
26.3183,282,0.9097
26.3226,724,2.3355
26.3269,764,2.4645
26.3312,346,1.1161
26.3355,127,0.4097
26.3398,466,1.5032
26.3441,817,2.6355
26.3484,666,2.1484
26.3527,228,0.7355
26.3570,197,0.6355
26.3613,632,2.0387
26.3656,832,2.6839
26.3699,507,1.6355
26.3742,150,0.4839
26.3785,336,1.0839
26.3828,768,2.4774
26.3871,785,2.5323
26.3914,359,1.1581
26.3957,166,0.5355
