time_s,adc_raw,voltage
0.0000,603,1.9452
0.0048,637,2.0548
0.0099,651,2.1000
0.0144,636,2.0516
0.0187,628,2.0258
0.0231,650,2.0968
0.0274,678,2.1871
0.0318,666,2.1484
0.0362,645,2.0806
0.0405,655,2.1129
0.0449,682,2.2000
0.0493,693,2.2355
0.0537,671,2.1645
0.0582,643,2.0742
0.0626,660,2.1290
0.0670,683,2.2032
0.0714,659,2.1258
0.0758,619,1.9968
0.0805,613,1.9774
0.0849,627,2.0226
0.0893,624,2.0129
0.0937,600,1.9355
0.0982,577,1.8613
0.1026,593,1.9129
0.1070,614,1.9806
0.1113,607,1.9581
0.1157,581,1.8742
0.1201,571,1.8419
0.1245,591,1.9065
0.1289,609,1.9645
0.1332,594,1.9161
0.1376,579,1.8677
0.1420,601,1.9387
0.1464,637,2.0548
0.1517,640,2.0645
0.1563,621,2.0032
0.1608,629,2.0290
0.1651,648,2.0903
0.1695,655,2.1129
0.1739,644,2.0774
0.1782,633,2.0419
0.1826,653,2.1065
0.1869,683,2.2032
0.1913,677,2.1839
0.1956,654,2.1097
0.2000,655,2.1129
0.2043,683,2.2032
0.2087,707,2.2806
0.2130,697,2.2484
0.2174,673,2.1710
0.2217,684,2.2065
0.2260,709,2.2871
0.2304,710,2.2903
0.2348,692,2.2323
0.2392,687,2.2161
0.2435,704,2.2710
0.2479,724,2.3355
0.2523,709,2.2871
0.2567,684,2.2065
0.2611,690,2.2258
0.2654,713,2.3000
0.2698,722,2.3290
0.2742,705,2.2742
0.2789,689,2.2226
0.2833,710,2.2903
0.3028,708,2.2839
0.3073,733,2.3645
0.3240,732,2.3613
0.3340,732,2.3613
0.3440,737,2.3774
0.3485,759,2.4484
0.3529,746,2.4065
0.3592,727,2.3452
0.3636,743,2.3968
0.3680,768,2.4774
0.3723,756,2.4387
0.3766,738,2.3806
0.3810,748,2.4129
0.3853,777,2.5065
0.3896,793,2.5581
0.3939,773,2.4935
0.3982,756,2.4387
0.4025,779,2.5129
0.4068,811,2.6161
0.4111,813,2.6226
0.4154,789,2.5452
0.4197,772,2.4903
0.4240,780,2.5161
0.4283,794,2.5613
0.4326,767,2.4742
0.4370,724,2.3355
0.4413,723,2.3323
0.4457,740,2.3871
0.4500,749,2.4161
0.4542,727,2.3452
0.4586,706,2.2774
0.4629,724,2.3355
0.4672,751,2.4226
0.4715,744,2.4000
0.4758,718,2.3161
0.4801,707,2.2806
0.4844,722,2.3290
0.4888,737,2.3774
0.4931,713,2.3000
0.4974,675,2.1774
0.5018,675,2.1774
0.5060,728,2.3484
0.5103,801,2.5839
0.5146,873,2.8161
0.5189,972,3.1355
0.5232,1001,3.2290
0.5276,1004,3.2387
0.5319,1002,3.2323
0.5362,1004,3.2387
0.5406,1004,3.2387
0.5449,1004,3.2387
0.5492,1000,3.2258
0.5536,931,3.0032
0.5580,728,2.3484
0.5624,632,2.0387
0.5667,625,2.0161
0.5711,621,2.0032
0.5755,601,1.9387
0.5799,590,1.9032
0.5843,607,1.9581
0.5886,624,2.0129
0.5930,596,1.9226
0.5974,565,1.8226
0.6018,574,1.8516
0.6062,592,1.9097
0.6105,589,1.9000
0.6149,566,1.8258
0.6193,550,1.7742
0.6236,563,1.8161
0.6281,578,1.8645
0.6324,554,1.7871
0.6368,526,1.6968
0.6411,527,1.7000
0.6455,550,1.7742
0.6498,559,1.8032
0.6541,534,1.7226
0.6585,506,1.6323
0.6631,521,1.6806
0.6675,543,1.7516
0.6719,529,1.7065
0.6762,499,1.6097
0.6806,493,1.5903
0.6849,511,1.6484
0.6893,520,1.6774
0.6937,491,1.5839
0.6981,454,1.4645
0.7026,466,1.5032
0.7069,492,1.5871
0.7113,482,1.5548
0.7156,450,1.4516
0.7200,437,1.4097
0.7243,455,1.4677
0.7287,476,1.5355
0.7331,454,1.4645
0.7375,424,1.3677
0.7422,434,1.4000
0.7466,450,1.4516
0.7509,438,1.4129
0.7553,405,1.3065
0.7596,384,1.2387
0.7643,399,1.2871
0.7687,412,1.3290
0.7731,384,1.2387
0.7775,348,1.1226
0.7818,346,1.1161
0.7863,361,1.1645
0.7906,353,1.1387
0.7950,311,1.0032
0.7993,274,0.8839
0.8045,274,0.8839
0.8088,277,0.8935
0.8132,239,0.7710
0.8176,190,0.6129
0.8220,181,0.5839
0.8264,187,0.6032
0.8308,172,0.5548
0.8351,132,0.4258
0.8395,102,0.3290
0.8439,112,0.3613
0.8483,128,0.4129
0.8527,98,0.3161
0.8571,59,0.1903
0.8614,53,0.1710
0.8663,71,0.2290
0.8706,73,0.2355
0.8750,45,0.1452
0.8796,25,0.0806
0.8840,44,0.1419
0.8884,64,0.2065
0.8930,39,0.1258
0.8975,3,0.0097
0.9020,8,0.0258
0.9063,30,0.0968
0.9108,29,0.0935
0.9152,3,0.0097
0.9202,0,0.0000
0.9246,0,0.0000
0.9290,13,0.0419
0.9334,0,0.0000
0.9378,0,0.0000
0.9422,0,0.0000
0.9466,0,0.0000
0.9510,0,0.0000
0.9565,0,0.0000
0.9631,0,0.0000
0.9676,0,0.0000
0.9721,0,0.0000
0.9765,0,0.0000
0.9809,0,0.0000
0.9853,0,0.0000
0.9906,0,0.0000
0.9952,0,0.0000
0.9995,0,0.0000
1.0040,0,0.0000
1.0083,0,0.0000
1.0127,0,0.0000
1.0174,0,0.0000
1.0218,0,0.0000
1.0262,0,0.0000
1.0307,0,0.0000
1.0351,0,0.0000
1.0396,0,0.0000
1.0439,0,0.0000
1.0482,0,0.0000
1.0528,0,0.0000
1.0572,0,0.0000
1.0617,0,0.0000
1.0662,0,0.0000
1.0708,0,0.0000
1.0753,0,0.0000
1.0797,0,0.0000
1.0842,0,0.0000
1.0886,0,0.0000
1.0931,0,0.0000
1.0990,0,0.0000
1.1036,0,0.0000
1.1079,0,0.0000
1.1123,0,0.0000
1.1167,0,0.0000
1.1211,0,0.0000
1.1255,0,0.0000
1.1300,0,0.0000
1.1344,0,0.0000
1.1389,0,0.0000
1.1434,20,0.0645
1.1478,57,0.1839
1.1523,64,0.2065
1.1568,56,0.1806
1.1612,71,0.2290
1.1658,103,0.3323
1.1704,108,0.3484
1.1747,83,0.2677
1.1791,60,0.1935
1.1835,73,0.2355
1.1881,95,0.3065
1.1924,81,0.2613
1.1968,56,0.1806
1.2019,63,0.2032
1.2063,96,0.3097
1.2107,111,0.3581
1.2151,93,0.3000
1.2196,81,0.2613
1.2240,108,0.3484
1.2284,139,0.4484
1.2328,128,0.4129
1.2371,107,0.3452
1.2416,114,0.3677
1.2460,131,0.4226
1.2505,132,0.4258
1.2557,133,0.4290
1.2618,228,0.7355
1.2663,353,1.1387
1.2707,492,1.5871
1.2751,600,1.9355
1.2795,689,2.2226
1.2839,773,2.4935
1.2883,772,2.4903
1.2927,637,2.0548
1.2971,482,1.5548
1.3014,383,1.2355
1.3058,324,1.0452
1.3101,259,0.8355
1.3145,184,0.5935
1.3190,148,0.4774
1.3236,176,0.5677
1.3280,212,0.6839
1.3325,212,0.6839
1.3368,203,0.6548
1.3412,214,0.6903
1.3456,237,0.7645
1.3500,255,0.8226
1.3543,242,0.7806
1.3587,227,0.7323
1.3631,254,0.8194
1.3674,288,0.9290
1.3718,293,0.9452
1.3762,278,0.8968
1.3806,280,0.9032
1.3854,310,1.0000
1.3898,328,1.0581
1.3942,314,1.0129
1.3985,298,0.9613
1.4029,321,1.0355
1.4072,358,1.1548
1.4114,366,1.1806
1.4157,354,1.1419
1.4199,352,1.1355
1.4241,379,1.2226
1.4284,410,1.3226
1.4326,401,1.2935
1.4368,384,1.2387
1.4411,396,1.2774
1.4453,428,1.3806
1.4495,456,1.4710
1.4538,450,1.4516
1.4580,435,1.4032
1.4623,456,1.4710
1.4668,495,1.5968
1.4711,507,1.6355
1.4753,497,1.6032
1.4796,490,1.5806
1.4838,520,1.6774
1.4881,555,1.7903
1.4924,554,1.7871
1.4966,538,1.7355
1.5008,545,1.7581
1.5050,574,1.8516
1.5092,601,1.9387
1.5135,593,1.9129
1.5177,576,1.8581
1.5220,588,1.8968
1.5263,614,1.9806
1.5305,624,2.0129
1.5348,609,1.9645
1.5390,590,1.9032
1.5432,605,1.9516
1.5474,627,2.0226
1.5516,618,1.9935
1.5559,586,1.8903
1.5601,569,1.8355
1.5643,587,1.8935
1.5688,606,1.9548
1.5731,587,1.8935
1.5773,557,1.7968
1.5815,555,1.7903
1.5857,573,1.8484
1.5900,583,1.8806
1.5944,566,1.8258
1.5987,547,1.7645
1.6030,566,1.8258
1.6072,592,1.9097
1.6115,594,1.9161
1.6158,573,1.8484
1.6201,568,1.8323
1.6244,594,1.9161
1.6287,619,1.9968
1.6330,605,1.9516
1.6373,590,1.9032
1.6416,598,1.9290
1.6458,621,2.0032
1.6500,636,2.0516
1.6549,617,1.9903
1.6591,602,1.9419
1.6633,624,2.0129
1.6675,660,2.1290
1.6718,660,2.1290
1.6761,639,2.0613
1.6804,629,2.0290
1.6846,652,2.1032
1.6888,678,2.1871
1.6931,664,2.1419
1.6974,644,2.0774
1.7016,652,2.1032
1.7058,674,2.1742
1.7100,685,2.2097
1.7142,666,2.1484
1.7185,642,2.0710
1.7227,659,2.1258
1.7274,689,2.2226
1.7317,688,2.2194
1.7359,668,2.1548
1.7402,658,2.1226
1.7444,676,2.1806
1.7486,696,2.2452
1.7528,684,2.2065
1.7570,662,2.1355
1.7613,665,2.1452
1.7655,688,2.2194
1.7697,707,2.2806
1.7740,689,2.2226
1.7782,667,2.1516
1.7825,681,2.1968
1.7867,699,2.2548
1.7909,704,2.2710
1.7951,686,2.2129
1.7994,669,2.1581
1.8036,687,2.2161
1.8078,710,2.2903
1.8120,707,2.2806
1.8163,688,2.2194
1.8206,685,2.2097
1.8248,704,2.2710
1.8291,728,2.3484
1.8334,717,2.3129
1.8376,695,2.2419
1.8419,705,2.2742
1.8462,729,2.3516
1.8504,737,2.3774
1.8560,709,2.2871
1.8604,701,2.2613
1.8647,719,2.3194
1.8690,742,2.3935
1.8732,731,2.3581
1.8775,716,2.3097
1.8818,731,2.3581
1.8860,763,2.4613
1.8902,778,2.5097
1.8945,766,2.4710
1.8987,747,2.4097
1.9030,766,2.4710
1.9072,794,2.5613
1.9114,800,2.5806
1.9156,788,2.5419
1.9200,776,2.5032
1.9247,790,2.5484
1.9291,805,2.5968
1.9335,774,2.4968
1.9378,745,2.4032
1.9421,748,2.4129
1.9464,762,2.4581
1.9507,765,2.4677
1.9550,742,2.3935
1.9597,728,2.3484
1.9641,751,2.4226
1.9684,776,2.5032
1.9728,768,2.4774
1.9771,744,2.4000
1.9814,740,2.3871
1.9858,755,2.4355
1.9901,764,2.4645
1.9943,741,2.3903
1.9985,718,2.3161
2.0027,726,2.3419
2.0070,760,2.4516
2.0112,806,2.6000
2.0154,865,2.7903
2.0196,954,3.0774
2.0239,1003,3.2355
2.0282,1003,3.2355
2.0325,1002,3.2323
2.0368,1005,3.2419
2.0411,1003,3.2355
2.0454,1003,3.2355
2.0496,1005,3.2419
2.0538,1003,3.2355
2.0581,997,3.2161
2.0623,901,2.9065
2.0666,788,2.5419
2.0708,732,2.3613
2.0750,692,2.2323
2.0793,674,2.1742
2.0836,700,2.2581
2.0878,730,2.3548
2.0921,731,2.3581
2.0963,710,2.2903
2.1005,702,2.2645
2.1047,724,2.3355
2.1090,749,2.4161
2.1132,736,2.3742
2.1174,710,2.2903
2.1218,709,2.2871
2.1260,731,2.3581
2.1303,740,2.3871
2.1345,727,2.3452
2.1387,711,2.2935
2.1429,727,2.3452
2.1472,753,2.4290
2.1514,756,2.4387
2.1556,734,2.3677
2.1602,726,2.3419
2.1645,746,2.4065
2.1688,771,2.4871
2.1730,765,2.4677
2.1773,746,2.4065
2.1815,744,2.4000
2.1857,767,2.4742
2.1900,780,2.5161
2.1943,766,2.4710
2.1986,744,2.4000
2.2036,764,2.4645
2.2080,791,2.5516
2.2123,788,2.5419
2.2167,775,2.5000
2.2210,776,2.5032
2.2253,803,2.5903
2.2297,823,2.6548
2.2341,807,2.6032
2.2384,790,2.5484
2.2428,806,2.6000
2.2471,834,2.6903
2.2516,838,2.7032
2.2561,817,2.6355
2.2606,815,2.6290
2.2657,839,2.7065
2.2701,844,2.7226
2.2745,824,2.6581
2.2788,801,2.5839
2.2832,817,2.6355
2.2876,838,2.7032
2.2920,830,2.6774
2.2964,802,2.5871
2.3008,783,2.5258
2.3052,793,2.5581
2.3096,801,2.5839
2.3140,773,2.4935
2.3184,743,2.3968
2.3228,747,2.4097
2.3275,763,2.4613
2.3319,746,2.4065
2.3363,715,2.3065
2.3407,700,2.2581
2.3451,717,2.3129
2.3495,728,2.3484
2.3539,707,2.2806
2.3584,683,2.2032
2.3628,690,2.2258
2.3672,713,2.3000
2.3716,711,2.2935
2.3760,689,2.2226
2.3804,677,2.1839
2.3849,694,2.2387
2.3893,717,2.3129
2.3936,701,2.2613
2.3981,683,2.2032
2.4024,692,2.2323
2.4068,713,2.3000
2.4112,722,2.3290
2.4157,704,2.2710
2.4201,692,2.2323
2.4245,712,2.2968
2.4288,733,2.3645
2.4333,716,2.3097
2.4377,686,2.2129
2.4421,686,2.2129
2.4465,706,2.2774
2.4508,718,2.3161
2.4552,703,2.2677
2.4596,684,2.2065
2.4639,697,2.2484
2.4683,714,2.3032
2.4726,702,2.2645
2.4770,675,2.1774
2.4814,673,2.1710
2.4857,694,2.2387
2.4902,707,2.2806
2.4946,683,2.2032
2.4990,656,2.1161
2.5034,671,2.1645
2.5077,693,2.2355
2.5121,688,2.2194
2.5165,664,2.1419
2.5209,658,2.1226
2.5252,676,2.1806
2.5295,691,2.2290
2.5339,674,2.1742
2.5382,651,2.1000
2.5425,660,2.1290
2.5469,680,2.1935
2.5512,685,2.2097
2.5555,664,2.1419
2.5599,645,2.0806
2.5643,657,2.1194
2.5686,677,2.1839
2.5733,667,2.1516
2.5777,644,2.0774
2.5820,643,2.0742
2.5863,665,2.1452
2.5906,679,2.1903
2.5949,661,2.1323
2.5992,637,2.0548
2.6034,654,2.1097
2.6077,677,2.1839
2.6120,671,2.1645
2.6163,643,2.0742
2.6207,625,2.0161
2.6250,639,2.0613
2.6293,665,2.1452
2.6337,653,2.1065
2.6380,628,2.0258
2.6423,632,2.0387
2.6466,652,2.1032
2.6509,663,2.1387
2.6554,643,2.0742
2.6597,625,2.0161
2.6640,643,2.0742
2.6683,669,2.1581
2.6726,665,2.1452
2.6769,649,2.0935
2.6812,653,2.1065
2.6857,682,2.2000
2.6901,696,2.2452
2.6944,676,2.1806
2.6987,658,2.1226
2.7030,674,2.1742
2.7073,699,2.2548
2.7116,704,2.2710
2.7158,673,2.1710
2.7202,648,2.0903
2.7245,664,2.1419
2.7289,685,2.2097
2.7332,664,2.1419
2.7375,627,2.0226
2.7418,621,2.0032
2.7461,637,2.0548
2.7504,655,2.1129
2.7560,630,2.0323
2.7608,618,1.9935
2.7651,630,2.0323
2.7694,648,2.0903
2.7737,630,2.0323
2.7782,602,1.9419
2.7825,607,1.9581
2.7868,623,2.0097
2.7911,621,2.0032
2.7954,591,1.9065
2.7997,572,1.8452
2.8040,616,1.9871
2.8083,701,2.2613
2.8126,776,2.5032
2.8168,864,2.7871
2.8211,992,3.2000
2.8254,1002,3.2323
2.8298,1003,3.2355
2.8341,1001,3.2290
2.8385,1003,3.2355
2.8428,1000,3.2258
2.8472,993,3.2032
2.8515,850,2.7419
2.8558,664,2.1419
2.8601,555,1.7903
2.8644,545,1.7581
2.8687,568,1.8323
2.8730,568,1.8323
2.8773,552,1.7806
2.8816,549,1.7710
2.8863,569,1.8355
2.8908,582,1.8774
2.8951,562,1.8129
2.8994,537,1.7323
2.9037,551,1.7774
2.9081,570,1.8387
2.9124,566,1.8258
2.9168,547,1.7645
2.9214,540,1.7419
2.9257,566,1.8258
2.9300,587,1.8935
2.9342,577,1.8613
2.9385,555,1.7903
2.9428,557,1.7968
2.9470,579,1.8677
2.9513,589,1.9000
2.9555,573,1.8484
2.9597,554,1.7871
2.9639,573,1.8484
2.9682,598,1.9290
2.9724,599,1.9323
2.9767,582,1.8774
2.9810,574,1.8516
2.9852,595,1.9194
2.9897,621,2.0032
2.9940,608,1.9613
2.9983,588,1.8968
3.0032,601,1.9387
3.0075,624,2.0129
3.0119,637,2.0548
3.0162,627,2.0226
3.0205,618,1.9935
3.0248,641,2.0677
3.0291,668,2.1548
3.0335,657,2.1194
3.0378,637,2.0548
3.0420,637,2.0548
3.0462,660,2.1290
3.0505,684,2.2065
3.0559,668,2.1548
3.0605,659,2.1258
3.0648,677,2.1839
3.0691,704,2.2710
3.0733,690,2.2258
3.0776,660,2.1290
3.0818,652,2.1032
3.0860,666,2.1484
3.0903,682,2.2000
3.0945,663,2.1387
3.0987,636,2.0516
3.1029,630,2.0323
3.1071,636,2.0516
3.1114,634,2.0452
3.1156,607,1.9581
3.1198,579,1.8677
3.1240,582,1.8774
3.1282,598,1.9290
3.1325,591,1.9065
3.1368,567,1.8290
3.1410,549,1.7710
3.1453,561,1.8097
3.1496,574,1.8516
3.1540,555,1.7903
3.1583,532,1.7161
3.1626,541,1.7452
3.1671,564,1.8194
3.1714,576,1.8581
3.1757,558,1.8000
3.1800,537,1.7323
3.1847,557,1.7968
3.1891,582,1.8774
3.1935,574,1.8516
3.1978,554,1.7871
3.2020,555,1.7903
3.2063,575,1.8548
3.2106,592,1.9097
3.2149,575,1.8548
3.2192,554,1.7871
3.2235,564,1.8194
3.2278,588,1.8968
3.2327,588,1.8968
3.2371,564,1.8194
3.2414,554,1.7871
3.2457,575,1.8548
3.2500,592,1.9097
3.2543,573,1.8484
3.2586,547,1.7645
3.2629,553,1.7839
3.2672,575,1.8548
3.2715,582,1.8774
3.2759,562,1.8129
3.2802,541,1.7452
3.2846,550,1.7742
3.2889,567,1.8290
3.2933,555,1.7903
3.2976,531,1.7129
3.3020,528,1.7032
3.3063,546,1.7613
3.3106,563,1.8161
3.3149,546,1.7613
3.3192,523,1.6871
3.3235,530,1.7097
3.3278,548,1.7677
3.3321,554,1.7871
3.3364,536,1.7290
3.3408,520,1.6774
3.3451,536,1.7290
3.3493,557,1.7968
3.3535,546,1.7613
3.3578,523,1.6871
3.3620,518,1.6710
3.3663,536,1.7290
3.3705,555,1.7903
3.3747,536,1.7290
3.3790,515,1.6613
3.3832,523,1.6871
3.3874,549,1.7710
3.3920,561,1.8097
3.3963,538,1.7355
3.4005,518,1.6710
3.4047,531,1.7129
3.4090,556,1.7935
3.4133,549,1.7710
3.4176,525,1.6935
3.4219,518,1.6710
3.4262,540,1.7419
3.4304,558,1.8000
3.4346,537,1.7323
3.4389,514,1.6581
3.4432,519,1.6742
3.4474,544,1.7548
3.4516,558,1.8000
3.4558,541,1.7452
3.4601,523,1.6871
3.4643,537,1.7323
3.4685,558,1.8000
3.4728,556,1.7935
3.4772,538,1.7355
3.4815,530,1.7097
3.4858,547,1.7645
3.4902,564,1.8194
3.4950,549,1.7710
3.4993,533,1.7194
3.5036,548,1.7677
3.5078,570,1.8387
3.5120,572,1.8452
3.5162,549,1.7710
3.5205,529,1.7065
3.5247,552,1.7806
3.5289,585,1.8871
3.5331,580,1.8710
3.5374,552,1.7806
3.5416,533,1.7194
3.5458,543,1.7516
3.5500,557,1.7968
3.5542,543,1.7516
3.5585,521,1.6806
3.5628,526,1.6968
3.5671,550,1.7742
3.5713,562,1.8129
3.5755,541,1.7452
3.5798,518,1.6710
3.5840,534,1.7226
3.5882,558,1.8000
3.5925,555,1.7903
3.5970,516,1.6645
3.6013,489,1.5774
3.6055,497,1.6032
3.6097,521,1.6806
3.6139,534,1.7226
3.6181,571,1.8419
3.6223,648,2.0903
3.6266,776,2.5032
3.6308,932,3.0065
3.6350,998,3.2194
3.6393,1000,3.2258
3.6436,1000,3.2258
3.6480,1001,3.2290
3.6523,994,3.2065
3.6565,857,2.7645
3.6611,662,2.1355
3.6654,558,1.8000
3.6697,515,1.6613
3.6739,484,1.5613
3.6781,462,1.4903
3.6824,464,1.4968
3.6866,491,1.5839
3.6909,511,1.6484
3.6951,492,1.5871
3.6993,466,1.5032
3.7036,472,1.5226
3.7078,496,1.6000
3.7120,505,1.6290
3.7162,485,1.5645
3.7204,465,1.5000
3.7246,484,1.5613
3.7289,505,1.6290
3.7331,503,1.6226
3.7373,483,1.5581
3.7416,473,1.5258
3.7458,497,1.6032
3.7502,525,1.6935
3.7544,511,1.6484
3.7587,490,1.5806
3.7631,493,1.5903
3.7674,517,1.6677
3.7716,535,1.7258
3.7758,516,1.6645
3.7800,494,1.5935
3.7843,514,1.6581
3.7885,543,1.7516
3.7932,547,1.7645
3.7975,525,1.6935
3.8017,515,1.6613
3.8059,535,1.7258
3.8102,562,1.8129
3.8144,557,1.7968
3.8186,538,1.7355
3.8231,540,1.7419
3.8274,563,1.8161
3.8317,581,1.8742
3.8359,566,1.8258
3.8401,549,1.7710
3.8448,571,1.8419
3.8490,600,1.9355
3.8532,602,1.9419
3.8574,585,1.8871
3.8616,574,1.8516
3.8658,588,1.8968
3.8701,609,1.9645
3.8743,600,1.9355
3.8785,582,1.8774
3.8828,582,1.8774
3.8870,599,1.9323
3.8913,617,1.9903
3.8955,597,1.9258
3.8997,567,1.8290
3.9039,567,1.8290
3.9082,580,1.8710
3.9124,580,1.8710
3.9166,550,1.7742
3.9208,520,1.6774
3.9250,526,1.6968
3.9292,539,1.7387
3.9335,525,1.6935
3.9377,492,1.5871
3.9419,471,1.5194
3.9462,482,1.5548
3.9504,499,1.6097
3.9546,480,1.5484
3.9609,446,1.4387
3.9652,463,1.4935
3.9695,486,1.5677
3.9738,479,1.5452
3.9780,453,1.4613
3.9823,444,1.4323
3.9865,467,1.5065
3.9907,493,1.5903
3.9950,479,1.5452
3.9992,458,1.4774
4.0034,466,1.5032
4.0082,494,1.5935
4.0125,501,1.6161
4.0167,481,1.5516
4.0209,461,1.4871
4.0250,477,1.5387
4.0293,504,1.6258
4.0335,503,1.6226
4.0377,480,1.5484
4.0419,467,1.5065
4.0462,484,1.5613
4.0505,508,1.6387
4.0548,497,1.6032
4.0591,475,1.5323
4.0634,477,1.5387
4.0677,498,1.6065
4.0721,506,1.6323
4.0766,483,1.5581
4.0809,459,1.4806
4.0852,472,1.5226
4.0902,499,1.6097
4.0946,486,1.5677
4.0990,462,1.4903
4.1033,460,1.4839
4.1076,481,1.5516
4.1119,494,1.5935
4.1162,479,1.5452
4.1205,456,1.4710
4.1248,472,1.5226
4.1291,491,1.5839
4.1334,484,1.5613
4.1377,460,1.4839
4.1420,448,1.4452
4.1463,468,1.5097
4.1506,494,1.5935
4.1549,479,1.5452
4.1593,455,1.4677
4.1635,456,1.4710
4.1678,478,1.5419
4.1720,491,1.5839
4.1769,471,1.5194
4.1813,451,1.4548
4.1858,466,1.5032
4.1901,489,1.5774
4.1944,478,1.5419
4.1987,453,1.4613
4.2030,449,1.4484
4.2072,471,1.5194
4.2115,492,1.5871
4.2158,472,1.5226
4.2201,449,1.4484
4.2244,458,1.4774
4.2287,486,1.5677
4.2333,496,1.6000
4.2376,469,1.5129
4.2427,451,1.4548
4.2471,470,1.5161
4.2516,491,1.5839
4.2560,472,1.5226
4.2605,448,1.4452
4.2650,465,1.5000
4.2694,491,1.5839
4.2746,480,1.5484
4.2790,458,1.4774
4.2834,458,1.4774
4.2878,480,1.5484
4.2922,492,1.5871
4.2972,469,1.5129
4.3016,450,1.4516
4.3060,467,1.5065
4.3104,493,1.5903
4.3147,491,1.5839
4.3198,472,1.5226
4.3242,483,1.5581
4.3286,506,1.6323
4.3329,510,1.6452
4.3373,490,1.5806
4.3417,485,1.5645
4.3461,510,1.6452
4.3505,525,1.6935
4.3549,503,1.6226
4.3593,468,1.5097
4.3637,462,1.4903
4.3682,482,1.5548
4.3725,495,1.5968
4.3777,470,1.5161
4.3820,459,1.4806
4.3866,477,1.5387
4.3910,500,1.6129
4.3954,486,1.5677
4.3998,463,1.4935
4.4042,472,1.5226
4.4087,495,1.5968
4.4131,492,1.5871
4.4175,461,1.4871
4.4219,434,1.4000
4.4264,460,1.4839
4.4308,523,1.6871
4.4352,583,1.8806
4.4396,644,2.0774
4.4445,786,2.5355
4.4489,936,3.0194
4.4533,998,3.2194
4.4577,999,3.2226
4.4621,997,3.2161
4.4666,929,2.9968
4.4710,806,2.6000
4.4754,664,2.1419
4.4802,535,1.7258
4.4846,464,1.4968
4.4890,437,1.4097
4.4934,429,1.3839
4.4978,409,1.3194
4.5022,401,1.2935
4.5066,430,1.3871
4.5110,464,1.4968
4.5153,457,1.4742
4.5197,432,1.3935
4.5241,436,1.4065
4.5284,459,1.4806
4.5328,470,1.5161
4.5372,452,1.4581
4.5417,431,1.3903
4.5461,448,1.4452
4.5504,476,1.5355
4.5548,471,1.5194
4.5612,443,1.4290
4.5657,462,1.4903
4.5700,486,1.5677
4.5744,478,1.5419
4.5788,454,1.4645
4.5831,452,1.4581
4.5874,480,1.5484
4.5918,505,1.6290
4.5961,487,1.5710
4.6005,465,1.5000
4.6049,483,1.5581
4.6092,508,1.6387
4.6136,509,1.6419
4.6178,487,1.5710
4.6220,475,1.5323
4.6262,499,1.6097
4.6305,531,1.7129
4.6347,526,1.6968
4.6389,504,1.6258
4.6431,501,1.6161
4.6473,525,1.6935
4.6516,551,1.7774
4.6559,542,1.7484
4.6602,526,1.6968
4.6647,545,1.7581
4.6690,575,1.8548
4.6733,587,1.8935
4.6776,571,1.8419
4.6819,550,1.7742
4.6862,566,1.8258
4.6907,594,1.9161
4.6950,589,1.9000
4.6992,567,1.8290
4.7035,565,1.8226
4.7077,582,1.8774
4.7120,600,1.9355
4.7162,582,1.8774
4.7204,553,1.7839
4.7246,556,1.7935
4.7288,566,1.8258
4.7331,563,1.8161
4.7373,531,1.7129
4.7415,500,1.6129
4.7457,507,1.6355
4.7499,524,1.6903
4.7542,513,1.6548
4.7584,484,1.5613
4.7626,465,1.5000
4.7669,476,1.5355
4.7711,495,1.5968
4.7753,476,1.5355
4.7796,450,1.4516
4.7838,454,1.4645
4.7881,473,1.5258
4.7924,488,1.5742
4.7970,469,1.5129
4.8013,449,1.4484
4.8055,465,1.5000
4.8097,493,1.5903
4.8140,493,1.5903
4.8182,467,1.5065
4.8224,451,1.4548
4.8268,476,1.5355
4.8311,509,1.6419
4.8355,497,1.6032
4.8398,471,1.5194
4.8441,474,1.5290
4.8485,501,1.6161
4.8528,513,1.6548
4.8571,491,1.5839
4.8616,469,1.5129
4.8660,485,1.5645
4.8703,511,1.6484
4.8747,505,1.6290
4.8790,485,1.5645
4.8834,479,1.5452
4.8877,496,1.6000
4.8922,513,1.6548
4.8965,494,1.5935
4.9009,476,1.5355
4.9052,488,1.5742
4.9100,506,1.6323
4.9144,497,1.6032
4.9187,473,1.5258
4.9229,467,1.5065
4.9272,487,1.5710
4.9315,508,1.6387
4.9359,488,1.5742
4.9402,460,1.4839
4.9445,466,1.5032
4.9488,487,1.5710
4.9532,492,1.5871
4.9575,474,1.5290
4.9618,456,1.4710
4.9661,471,1.5194
4.9704,499,1.6097
4.9747,493,1.5903
4.9791,469,1.5129
4.9834,466,1.5032
4.9877,491,1.5839
4.9920,510,1.6452
4.9963,489,1.5774
5.0006,458,1.4774
5.0049,467,1.5065
5.0092,496,1.6000
5.0136,504,1.6258
5.0191,470,1.5161
5.0235,463,1.4935
5.0279,487,1.5710
5.0322,506,1.6323
5.0372,489,1.5774
5.0415,467,1.5065
5.0458,481,1.5516
5.0502,503,1.6226
5.0545,501,1.6161
5.0589,480,1.5484
5.0632,470,1.5161
5.0674,488,1.5742
5.0716,508,1.6387
5.0758,491,1.5839
5.0801,465,1.5000
5.0848,472,1.5226
5.0891,500,1.6129
5.0933,511,1.6484
5.0976,491,1.5839
5.1019,474,1.5290
5.1063,496,1.6000
5.1106,518,1.6710
5.1149,507,1.6355
5.1191,481,1.5516
5.1234,475,1.5323
5.1277,495,1.5968
5.1319,521,1.6806
5.1362,512,1.6516
5.1405,501,1.6161
5.1448,513,1.6548
5.1491,532,1.7161
5.1533,531,1.7129
5.1577,509,1.6419
5.1620,496,1.6000
5.1663,523,1.6871
5.1705,550,1.7742
5.1748,541,1.7452
5.1790,507,1.6355
5.1833,488,1.5742
5.1875,502,1.6194
5.1918,525,1.6935
5.1965,504,1.6258
5.2008,475,1.5323
5.2051,483,1.5581
5.2094,510,1.6452
5.2138,516,1.6645
5.2182,498,1.6065
5.2225,484,1.5613
5.2269,500,1.6129
5.2313,518,1.6710
5.2356,496,1.6000
5.2399,459,1.4806
5.2442,453,1.4613
5.2485,479,1.5452
5.2528,523,1.6871
5.2571,564,1.8194
5.2614,626,2.0194
5.2657,752,2.4258
5.2701,923,2.9774
5.2744,1000,3.2258
5.2787,1000,3.2258
5.2830,1001,3.2290
5.2873,1000,3.2258
5.2916,988,3.1871
5.2958,828,2.6710
5.3001,634,2.0452
5.3043,511,1.6484
5.3086,471,1.5194
5.3128,468,1.5097
5.3170,452,1.4581
5.3212,432,1.3935
5.3255,451,1.4548
5.3297,476,1.5355
5.3339,474,1.5290
5.3381,446,1.4387
5.3424,425,1.3710
5.3466,446,1.4387
5.3511,471,1.5194
5.3554,463,1.4935
5.3601,439,1.4161
5.3644,443,1.4290
5.3686,466,1.5032
5.3728,484,1.5613
5.3770,470,1.5161
5.3812,450,1.4516
5.3858,463,1.4935
5.3901,487,1.5710
5.3945,491,1.5839
5.3988,472,1.5226
5.4031,466,1.5032
5.4075,488,1.5742
5.4118,511,1.6484
5.4162,498,1.6065
5.4205,475,1.5323
5.4248,487,1.5710
5.4293,516,1.6645
5.4336,521,1.6806
5.4379,502,1.6194
5.4423,483,1.5581
5.4466,506,1.6323
5.4508,536,1.7290
5.4552,534,1.7226
5.4613,504,1.6258
5.4657,522,1.6839
5.4700,558,1.8000
5.4743,568,1.8323
5.4786,553,1.7839
5.4830,542,1.7484
5.4874,562,1.8129
5.4917,591,1.9065
5.4960,581,1.8742
5.5003,558,1.8000
5.5045,565,1.8226
5.5089,594,1.9161
5.5132,612,1.9742
5.5175,595,1.9194
5.5218,571,1.8419
5.5261,589,1.9000
5.5304,615,1.9839
5.5346,609,1.9645
5.5389,580,1.8710
5.5432,556,1.7935
5.5475,563,1.8161
5.5517,577,1.8613
5.5560,556,1.7935
5.5602,524,1.6903
5.5647,514,1.6581
5.5690,524,1.6903
5.5732,521,1.6806
5.5774,490,1.5806
5.5816,458,1.4774
5.5858,468,1.5097
5.5902,488,1.5742
5.5945,486,1.5677
5.5987,461,1.4871
5.6029,443,1.4290
5.6072,459,1.4806
5.6114,483,1.5581
5.6156,475,1.5323
5.6198,452,1.4581
5.6240,447,1.4419
5.6282,470,1.5161
5.6325,490,1.5806
5.6367,476,1.5355
5.6409,456,1.4710
5.6451,465,1.5000
5.6494,493,1.5903
5.6536,507,1.6355
5.6579,486,1.5677
5.6622,459,1.4806
5.6667,474,1.5290
5.6710,499,1.6097
5.6752,495,1.5968
5.6794,474,1.5290
5.6837,469,1.5129
5.6880,490,1.5806
5.6923,514,1.6581
5.6969,498,1.6065
5.7011,473,1.5258
5.7054,481,1.5516
5.7097,505,1.6290
5.7141,512,1.6516
5.7184,492,1.5871
5.7226,474,1.5290
5.7269,495,1.5968
5.7312,518,1.6710
5.7355,506,1.6323
5.7398,478,1.5419
5.7441,471,1.5194
5.7485,489,1.5774
5.7528,507,1.6355
5.7571,487,1.5710
5.7614,462,1.4903
5.7658,472,1.5226
5.7700,495,1.5968
5.7743,500,1.6129
5.7786,481,1.5516
5.7833,465,1.5000
5.7876,483,1.5581
5.7919,506,1.6323
5.7962,495,1.5968
5.8004,467,1.5065
5.8047,462,1.4903
5.8089,484,1.5613
5.8132,502,1.6194
5.8175,487,1.5710
5.8218,462,1.4903
5.8260,475,1.5323
5.8302,502,1.6194
5.8345,509,1.6419
5.8387,491,1.5839
5.8429,471,1.5194
5.8471,484,1.5613
5.8513,509,1.6419
5.8556,502,1.6194
5.8598,478,1.5419
5.8641,470,1.5161
5.8683,489,1.5774
5.8726,509,1.6419
5.8768,496,1.6000
5.8810,472,1.5226
5.8853,478,1.5419
5.8895,501,1.6161
5.8938,513,1.6548
5.8981,494,1.5935
5.9023,471,1.5194
5.9065,485,1.5645
5.9108,511,1.6484
5.9151,512,1.6516
5.9194,494,1.5935
5.9238,485,1.5645
5.9282,503,1.6226
5.9325,520,1.6774
5.9368,504,1.6258
5.9412,482,1.5548
5.9456,493,1.5903
5.9500,515,1.6613
5.9543,518,1.6710
5.9587,494,1.5935
5.9630,474,1.5290
5.9673,493,1.5903
5.9716,522,1.6839
5.9759,514,1.6581
5.9802,492,1.5871
5.9845,491,1.5839
5.9888,512,1.6516
5.9931,531,1.7129
5.9974,511,1.6484
6.0017,486,1.5677
6.0060,502,1.6194
6.0104,526,1.6968
6.0147,526,1.6968
6.0190,505,1.6290
6.0233,492,1.5871
6.0277,513,1.6548
6.0320,535,1.7258
6.0363,521,1.6806
6.0406,498,1.6065
6.0449,501,1.6161
6.0492,526,1.6968
6.0534,540,1.7419
6.0577,516,1.6645
6.0620,486,1.5677
6.0663,501,1.6161
6.0705,527,1.7000
6.0748,528,1.7032
6.0791,505,1.6290
6.0834,490,1.5806
6.0877,511,1.6484
6.0920,537,1.7323
6.0962,527,1.7000
6.1005,506,1.6323
6.1047,508,1.6387
6.1089,533,1.7194
6.1132,553,1.7839
6.1174,539,1.7387
6.1217,516,1.6645
6.1259,525,1.6935
6.1301,546,1.7613
6.1343,552,1.7806
6.1385,534,1.7226
6.1428,520,1.6774
6.1470,538,1.7355
6.1512,557,1.7968
6.1554,537,1.7323
6.1597,501,1.6161
6.1640,483,1.5581
6.1682,504,1.6258
6.1724,535,1.7258
6.1766,523,1.6871
6.1808,499,1.6097
6.1851,499,1.6097
6.1894,521,1.6806
6.1936,532,1.7161
6.1982,513,1.6548
6.2026,491,1.5839
6.2071,504,1.6258
6.2115,519,1.6742
6.2157,503,1.6226
6.2200,471,1.5194
6.2243,467,1.5065
6.2286,520,1.6774
6.2329,611,1.9710
6.2372,685,2.2097
6.2415,778,2.5097
6.2458,919,2.9645
6.2500,997,3.2161
6.2542,1000,3.2258
6.2585,1003,3.2355
6.2628,998,3.2194
6.2671,944,3.0452
6.2715,790,2.5484
6.2759,624,2.0129
6.2802,492,1.5871
6.2845,440,1.4194
6.2888,455,1.4677
6.2932,484,1.5613
6.2975,474,1.5290
6.3018,449,1.4484
6.3060,457,1.4742
6.3102,479,1.5452
6.3145,486,1.5677
6.3187,467,1.5065
6.3230,446,1.4387
6.3272,463,1.4935
6.3315,491,1.5839
6.3358,491,1.5839
6.3401,467,1.5065
6.3444,456,1.4710
6.3487,478,1.5419
6.3530,502,1.6194
6.3573,486,1.5677
6.3623,459,1.4806
6.3667,477,1.5387
6.3710,506,1.6323
6.3753,508,1.6387
6.3795,487,1.5710
6.3838,480,1.5484
6.3881,503,1.6226
6.3924,529,1.7065
6.3966,517,1.6677
6.4008,496,1.6000
6.4050,499,1.6097
6.4093,522,1.6839
6.4135,542,1.7484
6.4177,528,1.7032
6.4219,508,1.6387
6.4262,522,1.6839
6.4305,550,1.7742
6.4348,558,1.8000
6.4392,540,1.7419
6.4445,535,1.7258
6.4489,563,1.8161
6.4534,588,1.8968
6.4578,574,1.8516
6.4623,557,1.7968
6.4668,574,1.8516
6.4712,604,1.9484
6.4757,604,1.9484
6.4802,584,1.8839
6.4846,578,1.8645
6.4891,604,1.9484
6.4936,623,2.0097
6.4980,607,1.9581
6.5024,582,1.8774
6.5068,594,1.9161
6.5112,616,1.9871
6.5156,610,1.9677
6.5200,586,1.8903
6.5244,575,1.8548
6.5288,586,1.8903
6.5332,589,1.9000
6.5376,558,1.8000
6.5420,517,1.6677
6.5463,515,1.6613
6.5507,531,1.7129
6.5551,522,1.6839
6.5601,483,1.5581
6.5645,466,1.5032
6.5688,482,1.5548
6.5732,501,1.6161
6.5776,483,1.5581
6.5820,455,1.4677
6.5867,463,1.4935
6.5911,486,1.5677
6.5955,486,1.5677
6.5999,463,1.4935
6.6043,451,1.4548
6.6093,472,1.5226
6.6137,490,1.5806
6.6182,475,1.5323
6.6226,458,1.4774
6.6270,475,1.5323
6.6314,500,1.6129
6.6358,498,1.6065
6.6402,476,1.5355
6.6446,472,1.5226
6.6490,495,1.5968
6.6535,518,1.6710
6.6579,501,1.6161
6.6634,471,1.5194
6.6678,488,1.5742
6.6722,512,1.6516
6.6766,503,1.6226
6.6810,479,1.5452
6.6854,482,1.5548
6.6898,506,1.6323
6.6942,520,1.6774
6.6987,498,1.6065
6.7031,473,1.5258
6.7075,482,1.5548
6.7121,504,1.6258
6.7165,496,1.6000
6.7209,471,1.5194
6.7253,472,1.5226
6.7297,495,1.5968
6.7341,509,1.6419
6.7385,492,1.5871
6.7430,469,1.5129
6.7474,485,1.5645
6.7518,506,1.6323
6.7562,494,1.5935
6.7607,468,1.5097
6.7651,465,1.5000
6.7694,488,1.5742
6.7740,502,1.6194
6.7783,484,1.5613
6.7827,463,1.4935
6.7870,479,1.5452
6.7919,504,1.6258
6.7963,500,1.6129
6.8007,473,1.5258
6.8050,465,1.5000
6.8094,484,1.5613
6.8138,500,1.6129
6.8182,483,1.5581
6.8225,457,1.4742
6.8269,472,1.5226
6.8312,499,1.6097
6.8356,502,1.6194
6.8399,478,1.5419
6.8443,466,1.5032
6.8486,481,1.5516
6.8530,505,1.6290
6.8573,494,1.5935
6.8617,476,1.5355
6.8661,482,1.5548
6.8704,503,1.6226
6.8748,509,1.6419
6.8791,484,1.5613
6.8835,461,1.4871
6.8881,479,1.5452
6.8924,506,1.6323
6.8970,496,1.6000
6.9014,473,1.5258
6.9058,475,1.5323
6.9101,498,1.6065
6.9145,511,1.6484
6.9188,495,1.5968
6.9232,475,1.5323
6.9274,492,1.5871
6.9317,515,1.6613
6.9360,507,1.6355
6.9403,481,1.5516
6.9446,473,1.5258
6.9489,501,1.6161
6.9532,529,1.7065
6.9575,518,1.6710
6.9618,494,1.5935
6.9661,500,1.6129
6.9704,525,1.6935
6.9747,539,1.7387
6.9790,525,1.6935
6.9832,505,1.6290
6.9875,518,1.6710
6.9917,536,1.7290
6.9960,530,1.7097
7.0002,499,1.6097
7.0044,478,1.5419
7.0086,491,1.5839
7.0128,513,1.6548
7.0171,500,1.6129
7.0213,476,1.5355
7.0256,477,1.5387
7.0298,500,1.6129
7.0340,518,1.6710
7.0382,498,1.6065
7.0425,472,1.5226
7.0468,480,1.5484
7.0511,494,1.5935
7.0555,486,1.5677
7.0605,450,1.4516
7.0649,439,1.4161
7.0692,480,1.5484
7.0735,560,1.8065
7.0778,624,2.0129
7.0821,705,2.2742
7.0864,840,2.7097
7.0907,983,3.1710
7.0950,999,3.2226
7.0993,1000,3.2258
7.1035,995,3.2097
7.1078,911,2.9387
7.1120,775,2.5000
7.1162,633,2.0419
7.1205,513,1.6548
7.1248,432,1.3935
7.1291,414,1.3355
7.1333,429,1.3839
7.1375,420,1.3548
7.1422,402,1.2968
7.1465,419,1.3516
7.1508,450,1.4516
7.1551,459,1.4806
7.1594,434,1.4000
7.1637,406,1.3097
7.1681,422,1.3613
7.1724,450,1.4516
7.1767,447,1.4419
7.1811,426,1.3742
7.1854,428,1.3806
7.1898,448,1.4452
7.1941,466,1.5032
7.1984,451,1.4548
7.2027,429,1.3839
7.2070,441,1.4226
7.2113,467,1.5065
7.2156,478,1.5419
7.2199,462,1.4903
7.2242,450,1.4516
7.2285,468,1.5097
7.2328,492,1.5871
7.2371,483,1.5581
7.2413,464,1.4968
7.2456,462,1.4903
7.2498,482,1.5548
7.2541,506,1.6323
7.2583,491,1.5839
7.2626,468,1.5097
7.2669,482,1.5548
7.2713,511,1.6484
7.2755,521,1.6806
7.2797,505,1.6290
7.2840,492,1.5871
7.2882,519,1.6742
7.2925,553,1.7839
7.2967,552,1.7806
7.3010,533,1.7194
7.3052,528,1.7032
7.3094,550,1.7742
7.3137,578,1.8645
7.3179,570,1.8387
7.3221,552,1.7806
7.3264,563,1.8161
7.3307,588,1.8968
7.3350,597,1.9258
7.3392,581,1.8742
7.3435,561,1.8097
7.3477,570,1.8387
7.3520,587,1.8935
7.3562,576,1.8581
7.3604,549,1.7710
7.3647,530,1.7097
7.3689,542,1.7484
7.3733,555,1.7903
7.3776,530,1.7097
7.3819,492,1.5871
7.3863,484,1.5613
7.3906,493,1.5903
7.3949,490,1.5806
7.3992,460,1.4839
7.4035,431,1.3903
7.4082,445,1.4355
7.4125,463,1.4935
7.4167,451,1.4548
7.4209,426,1.3742
7.4252,417,1.3452
7.4294,439,1.4161
7.4337,464,1.4968
7.4380,447,1.4419
7.4422,423,1.3645
7.4464,429,1.3839
7.4507,455,1.4677
7.4551,465,1.5000
7.4594,444,1.4323
7.4638,423,1.3645
7.4681,446,1.4387
7.4724,474,1.5290
7.4768,467,1.5065
7.4811,444,1.4323
7.4856,440,1.4194
7.4904,468,1.5097
7.4947,487,1.5710
7.4990,466,1.5032
7.5033,442,1.4258
7.5076,456,1.4710
7.5119,481,1.5516
7.5162,480,1.5484
7.5205,458,1.4774
7.5247,445,1.4355
7.5289,459,1.4806
7.5332,481,1.5516
7.5374,471,1.5194
7.5417,450,1.4516
7.5459,453,1.4613
7.5501,472,1.5226
7.5543,486,1.5677
7.5586,469,1.5129
7.5630,445,1.4355
7.5677,457,1.4742
7.5720,480,1.5484
7.5763,476,1.5355
7.5806,453,1.4613
7.5849,443,1.4290
7.5892,464,1.4968
7.5936,487,1.5710
7.5980,473,1.5258
7.6023,450,1.4516
7.6067,458,1.4774
7.6110,482,1.5548
7.6153,488,1.5742
7.6197,467,1.5065
7.6240,447,1.4419
7.6284,467,1.5065
7.6333,496,1.6000
7.6376,486,1.5677
7.6420,462,1.4903
7.6464,460,1.4839
7.6508,483,1.5581
7.6551,499,1.6097
7.6594,482,1.5548
7.6639,461,1.4871
7.6683,478,1.5419
7.6726,504,1.6258
7.6769,499,1.6097
7.6812,481,1.5516
7.6856,484,1.5613
7.6900,504,1.6258
7.6946,517,1.6677
7.6989,499,1.6097
7.7032,475,1.5323
7.7075,491,1.5839
7.7119,516,1.6645
7.7161,522,1.6839
7.7204,506,1.6323
7.7248,494,1.5935
7.7291,510,1.6452
7.7334,534,1.7226
7.7377,526,1.6968
7.7420,508,1.6387
7.7463,515,1.6613
7.7506,539,1.7387
7.7549,553,1.7839
7.7591,534,1.7226
7.7635,519,1.6742
7.7678,540,1.7419
7.7722,567,1.8290
7.7766,568,1.8323
7.7809,550,1.7742
7.7851,548,1.7677
7.7895,580,1.8710
7.7939,614,1.9806
7.7982,606,1.9548
7.8025,578,1.8645
7.8068,574,1.8516
7.8110,592,1.9097
7.8153,597,1.9258
7.8196,573,1.8484
7.8239,550,1.7742
7.8283,563,1.8161
7.8327,582,1.8774
7.8370,575,1.8548
7.8413,553,1.7839
7.8456,551,1.7774
7.8500,575,1.8548
7.8542,597,1.9258
7.8585,581,1.8742
7.8629,555,1.7903
7.8672,566,1.8258
7.8715,586,1.8903
7.8758,588,1.8968
7.8802,565,1.8226
7.8845,549,1.7710
7.8889,583,1.8806
7.8932,664,2.1419
7.8976,744,2.4000
7.9019,841,2.7129
7.9061,972,3.1355
7.9104,1000,3.2258
7.9146,1003,3.2355
7.9189,1003,3.2355
7.9240,1003,3.2355
7.9283,1000,3.2258
7.9326,988,3.1871
7.9369,854,2.7548
7.9411,686,2.2129
7.9454,587,1.8935
7.9497,578,1.8645
7.9539,604,1.9484
7.9581,601,1.9387
7.9624,582,1.8774
7.9668,592,1.9097
7.9711,617,1.9903
7.9754,630,2.0323
7.9797,613,1.9774
7.9840,595,1.9194
7.9883,617,1.9903
7.9925,640,2.0645
7.9968,640,2.0645
8.0016,615,1.9839
8.0058,613,1.9774
8.0100,635,2.0484
8.0143,660,2.1290
8.0185,646,2.0839
8.0227,624,2.0129
8.0270,636,2.0516
8.0313,666,2.1484
8.0355,685,2.2097
8.0397,670,2.1613
8.0440,651,2.1000
8.0483,667,2.1516
8.0526,695,2.2419
8.0569,692,2.2323
8.0613,674,2.1742
8.0656,675,2.1774
8.0699,704,2.2710
8.0746,727,2.3452
8.0789,709,2.2871
8.0834,689,2.2226
8.0877,704,2.2710
8.0919,739,2.3839
8.0962,755,2.4355
8.1005,735,2.3710
8.1048,719,2.3194
8.1091,739,2.3839
8.1135,771,2.4871
8.1180,767,2.4742
8.1225,751,2.4226
8.1270,761,2.4548
8.1315,790,2.5484
8.1360,804,2.5935
8.1404,789,2.5452
8.1454,779,2.5129
8.1498,795,2.5645
8.1542,821,2.6484
8.1586,807,2.6032
8.1631,784,2.5290
8.1676,796,2.5677
8.1720,816,2.6323
8.1764,813,2.6226
8.1808,780,2.5161
8.1852,760,2.4516
8.1898,773,2.4935
8.1941,782,2.5226
8.1985,751,2.4226
8.2029,710,2.2903
8.2073,704,2.2710
8.2117,715,2.3065
8.2160,711,2.2935
8.2204,680,2.1935
8.2248,656,2.1161
8.2292,668,2.1548
8.2336,694,2.2387
8.2380,681,2.1968
8.2424,654,2.1097
8.2468,655,2.1129
8.2512,672,2.1677
8.2556,678,2.1871
8.2600,657,2.1194
8.2643,635,2.0484
8.2687,655,2.1129
8.2731,679,2.1903
8.2775,678,2.1871
8.2818,658,2.1226
8.2862,654,2.1097
8.2906,675,2.1774
8.2949,694,2.2387
8.2993,678,2.1871
8.3037,647,2.0871
8.3081,661,2.1323
8.3125,684,2.2065
8.3170,682,2.2000
8.3214,661,2.1323
8.3258,652,2.1032
8.3302,671,2.1645
8.3345,683,2.2032
8.3390,656,2.1161
8.3434,626,2.0194
8.3478,635,2.0484
8.3522,661,2.1323
8.3567,663,2.1387
8.3611,637,2.0548
8.3654,619,1.9968
8.3698,633,2.0419
8.3742,654,2.1097
8.3786,634,2.0452
8.3830,610,1.9677
8.3874,613,1.9774
8.3918,631,2.0355
8.3962,632,2.0387
8.4006,605,1.9516
8.4050,583,1.8806
8.4094,597,1.9258
8.4138,617,1.9903
8.4182,603,1.9452
8.4226,574,1.8516
8.4270,574,1.8516
8.4320,595,1.9194
8.4371,594,1.9161
8.4416,564,1.8194
8.4460,554,1.7871
8.4504,572,1.8452
8.4547,589,1.9000
8.4591,568,1.8323
8.4635,543,1.7516
8.4679,550,1.7742
8.4723,570,1.8387
8.4767,567,1.8290
8.4812,537,1.7323
8.4856,521,1.6806
8.4900,538,1.7355
8.4950,563,1.8161
8.4994,543,1.7516
8.5038,512,1.6516
8.5081,519,1.6742
8.5125,538,1.7355
8.5169,533,1.7194
8.5212,511,1.6484
8.5256,496,1.6000
8.5299,507,1.6355
8.5343,521,1.6806
8.5387,504,1.6258
8.5430,474,1.5290
8.5474,478,1.5419
8.5517,507,1.6355
8.5562,523,1.6871
8.5606,506,1.6323
8.5649,478,1.5419
8.5693,493,1.5903
8.5736,520,1.6774
8.5780,519,1.6742
8.5824,497,1.6032
8.5867,493,1.5903
8.5911,504,1.6258
8.5956,508,1.6387
8.5999,481,1.5516
8.6043,445,1.4355
8.6087,444,1.4323
8.6130,454,1.4645
8.6177,439,1.4161
8.6221,408,1.3161
8.6264,400,1.2903
8.6308,425,1.3710
8.6351,439,1.4161
8.6395,413,1.3323
8.6439,382,1.2323
8.6482,385,1.2419
8.6526,404,1.3032
8.6570,399,1.2871
8.6613,370,1.1935
8.6656,345,1.1129
8.6699,350,1.1290
8.6741,367,1.1839
8.6784,375,1.2097
8.6826,403,1.3000
8.6869,479,1.5452
8.6911,600,1.9355
8.6953,749,2.4161
8.7001,881,2.8419
8.7044,952,3.0710
8.7086,992,3.2000
8.7128,942,3.0387
8.7170,776,2.5032
8.7212,590,1.9032
8.7255,447,1.4419
8.7300,361,1.1645
8.7343,323,1.0419
8.7386,285,0.9194
8.7429,254,0.8194
8.7472,256,0.8258
8.7514,277,0.8935
8.7556,291,0.9387
8.7598,269,0.8677
8.7640,241,0.7774
8.7683,249,0.8032
8.7725,270,0.8710
8.7767,272,0.8774
8.7810,251,0.8097
8.7853,234,0.7548
8.7895,249,0.8032
8.7938,271,0.8742
8.7980,262,0.8452
8.8023,236,0.7613
8.8066,229,0.7387
8.8108,250,0.8065
8.8150,271,0.8742
8.8192,256,0.8258
8.8234,233,0.7516
8.8277,240,0.7742
8.8319,263,0.8484
8.8362,273,0.8806
8.8404,255,0.8226
8.8446,235,0.7581
8.8489,249,0.8032
8.8532,272,0.8774
8.8574,272,0.8774
8.8616,252,0.8129
8.8659,242,0.7806
8.8701,266,0.8581
8.8743,295,0.9516
8.8786,281,0.9065
8.8830,256,0.8258
8.8873,260,0.8387
8.8915,287,0.9258
8.8957,306,0.9871
8.9000,294,0.9484
8.9042,278,0.8968
8.9085,298,0.9613
8.9127,328,1.0581
8.9169,333,1.0742
8.9211,315,1.0161
8.9254,298,0.9613
8.9297,318,1.0258
8.9339,347,1.1194
8.9382,343,1.1065
8.9424,322,1.0387
8.9466,318,1.0258
8.9509,336,1.0839
8.9551,354,1.1419
8.9593,337,1.0871
8.9635,310,1.0000
8.9677,309,0.9968
8.9720,321,1.0355
8.9762,322,1.0387
8.9804,297,0.9581
8.9850,265,0.8548
8.9893,267,0.8613
8.9936,277,0.8935
8.9978,262,0.8452
9.0021,232,0.7484
9.0063,215,0.6935
9.0105,227,0.7323
9.0148,248,0.8000
9.0190,231,0.7452
9.0232,202,0.6516
9.0274,200,0.6452
9.0316,222,0.7161
9.0363,238,0.7677
9.0405,220,0.7097
9.0448,199,0.6419
9.0490,219,0.7065
9.0533,248,0.8000
9.0579,249,0.8032
9.0625,226,0.7290
9.0669,229,0.7387
9.0712,254,0.8194
9.0754,273,0.8806
9.0796,255,0.8226
9.0838,234,0.7548
9.0881,249,0.8032
9.0924,282,0.9097
9.0966,296,0.9548
9.1008,278,0.8968
9.1051,256,0.8258
9.1094,273,0.8806
9.1138,302,0.9742
9.1181,299,0.9645
9.1225,278,0.8968
9.1269,273,0.8806
9.1312,297,0.9581
9.1356,321,1.0355
9.1399,306,0.9871
9.1442,280,0.9032
9.1487,289,0.9323
9.1530,311,1.0032
9.1574,314,1.0129
9.1618,297,0.9581
9.1661,287,0.9258
9.1703,303,0.9774
9.1746,327,1.0548
9.1789,311,1.0032
9.1834,289,0.9323
9.1877,295,0.9516
9.1920,320,1.0323
9.1963,335,1.0806
9.2005,317,1.0226
9.2048,298,0.9613
9.2090,316,1.0194
9.2132,336,1.0839
9.2175,335,1.0806
9.2217,314,1.0129
9.2259,304,0.9806
9.2304,328,1.0581
9.2347,352,1.1355
9.2390,339,1.0935
9.2432,318,1.0258
9.2474,322,1.0387
9.2516,347,1.1194
9.2558,369,1.1903
9.2600,356,1.1484
9.2642,334,1.0774
9.2684,346,1.1161
9.2726,373,1.2032
9.2769,380,1.2258
9.2811,364,1.1742
9.2853,347,1.1194
9.2897,369,1.1903
9.2940,395,1.2742
9.2983,389,1.2548
9.3027,370,1.1935
9.3070,374,1.2065
9.3113,400,1.2903
9.3156,417,1.3452
9.3200,397,1.2806
9.3243,377,1.2161
9.3286,395,1.2742
9.3329,421,1.3581
9.3372,429,1.3839
9.3416,410,1.3226
9.3459,402,1.2968
9.3502,425,1.3710
9.3544,451,1.4548
9.3587,447,1.4419
9.3630,431,1.3903
9.3673,437,1.4097
9.3716,460,1.4839
9.3758,487,1.5710
9.3801,481,1.5516
9.3847,473,1.5258
9.3890,496,1.6000
9.3932,518,1.6710
9.3975,511,1.6484
9.4018,483,1.5581
9.4061,470,1.5161
9.4103,481,1.5516
9.4146,495,1.5968
9.4188,479,1.5452
9.4231,458,1.4774
9.4273,455,1.4677
9.4316,473,1.5258
9.4363,492,1.5871
9.4407,478,1.5419
9.4450,460,1.4839
9.4493,480,1.5484
9.4536,502,1.6194
9.4579,498,1.6065
9.4622,473,1.5258
9.4666,458,1.4774
9.4709,470,1.5161
9.4752,480,1.5484
9.4803,465,1.5000
9.4846,486,1.5677
9.4888,576,1.8581
9.4931,692,2.2323
9.4974,820,2.6452
9.5017,939,3.0290
9.5060,997,3.2161
9.5103,1000,3.2258
9.5146,1002,3.2323
9.5189,999,3.2226
9.5232,907,2.9258
9.5274,738,2.3806
9.5317,619,1.9968
9.5360,538,1.7355
9.5403,473,1.5258
9.5445,444,1.4323
9.5487,464,1.4968
9.5529,496,1.6000
9.5577,508,1.6387
9.5620,487,1.5710
9.5662,469,1.5129
9.5704,488,1.5742
9.5746,516,1.6645
9.5789,510,1.6452
9.5831,491,1.5839
9.5874,493,1.5903
9.5917,514,1.6581
9.5960,531,1.7129
9.6002,513,1.6548
9.6045,492,1.5871
9.6088,508,1.6387
9.6130,535,1.7258
9.6173,544,1.7548
9.6217,529,1.7065
9.6261,518,1.6710
9.6304,539,1.7387
9.6347,567,1.8290
9.6396,559,1.8032
9.6439,538,1.7355
9.6482,544,1.7548
9.6525,571,1.8419
9.6568,589,1.9000
9.6610,578,1.8645
9.6653,560,1.8065
9.6695,578,1.8645
9.6737,604,1.9484
9.6779,605,1.9516
9.6821,586,1.8903
9.6864,580,1.8710
9.6907,609,1.9645
9.6949,641,2.0677
9.6997,635,2.0484
9.7040,619,1.9968
9.7084,634,2.0452
9.7126,661,2.1323
9.7169,677,2.1839
9.7213,659,2.1258
9.7255,644,2.0774
9.7299,666,2.1484
9.7342,694,2.2387
9.7385,692,2.2323
9.7429,673,2.1710
9.7472,674,2.1742
9.7515,698,2.2516
9.7558,716,2.3097
9.7602,698,2.2516
9.7645,672,2.1677
9.7688,677,2.1839
9.7731,691,2.2290
9.7774,687,2.2161
9.7817,660,2.1290
9.7860,638,2.0581
9.7905,645,2.0806
9.7949,654,2.1097
9.7991,633,2.0419
9.8034,602,1.9419
9.8077,593,1.9129
9.8119,598,1.9290
9.8161,604,1.9484
9.8203,581,1.8742
9.8245,556,1.7935
9.8287,564,1.8194
9.8329,586,1.8903
9.8371,596,1.9226
9.8414,578,1.8645
9.8457,555,1.7903
9.8500,573,1.8484
9.8542,597,1.9258
9.8584,594,1.9161
9.8627,575,1.8548
9.8669,571,1.8419
9.8712,596,1.9226
9.8754,620,2.0000
9.8796,608,1.9613
9.8839,587,1.8935
9.8881,589,1.9000
9.8928,611,1.9710
9.8971,622,2.0065
9.9015,603,1.9452
9.9058,583,1.8806
9.9101,601,1.9387
9.9144,628,2.0258
9.9188,625,2.0161
9.9232,603,1.9452
9.9275,601,1.9387
9.9319,621,2.0032
9.9362,638,2.0581
9.9405,621,2.0032
9.9448,598,1.9290
9.9491,609,1.9645
9.9534,637,2.0548
9.9582,633,2.0419
9.9630,605,1.9516
9.9673,599,1.9323
9.9716,617,1.9903
9.9759,635,2.0484
9.9802,616,1.9871
9.9845,592,1.9097
9.9894,605,1.9516
9.9938,629,2.0290
9.9981,625,2.0161
10.0024,603,1.9452
10.0067,591,1.9065
10.0125,616,1.9871
10.0169,625,2.0161
10.0242,591,1.9065
10.0286,598,1.9290
10.0329,621,2.0032
10.0372,633,2.0419
10.0415,616,1.9871
10.0458,598,1.9290
10.0500,613,1.9774
10.0543,638,2.0581
10.0585,636,2.0516
10.0628,613,1.9774
10.0670,598,1.9290
10.0713,616,1.9871
10.0756,642,2.0710
10.0798,630,2.0323
10.0840,608,1.9613
10.0882,617,1.9903
10.0925,645,2.0806
10.0968,652,2.1032
10.1012,626,2.0194
10.1055,606,1.9548
10.1097,622,2.0065
10.1140,644,2.0774
10.1182,643,2.0742
10.1224,621,2.0032
10.1266,611,1.9710
10.1309,634,2.0452
10.1351,656,2.1161
10.1395,644,2.0774
10.1438,620,2.0000
10.1482,625,2.0161
10.1525,650,2.0968
10.1569,665,2.1452
10.1612,647,2.0871
10.1655,631,2.0355
10.1698,650,2.0968
10.1741,670,2.1613
10.1785,663,2.1387
10.1829,644,2.0774
10.1873,647,2.0871
10.1916,678,2.1871
10.1959,709,2.2871
10.2002,693,2.2355
10.2045,662,2.1355
10.2088,659,2.1258
10.2131,675,2.1774
10.2174,672,2.1677
10.2218,638,2.0581
10.2261,610,1.9677
10.2304,622,2.0065
10.2347,646,2.0839
10.2390,640,2.0645
10.2432,622,2.0065
10.2475,619,1.9968
10.2517,639,2.0613
10.2559,657,2.1194
10.2602,637,2.0548
10.2671,606,1.9548
10.2714,619,1.9968
10.2756,634,2.0452
10.2799,613,1.9774
10.2841,587,1.8935
10.2883,611,1.9710
10.2925,686,2.2129
10.2968,779,2.5129
10.3011,867,2.7968
10.3053,967,3.1194
10.3096,1000,3.2258
10.3142,1003,3.2355
10.3184,1003,3.2355
10.3227,1003,3.2355
10.3269,1000,3.2258
10.3311,988,3.1871
10.3353,886,2.8581
10.3395,738,2.3806
10.3438,615,1.9839
10.3480,560,1.8065
10.3523,567,1.8290
10.3565,587,1.8935
10.3608,575,1.8548
10.3652,561,1.8097
10.3695,579,1.8677
10.3739,607,1.9581
10.3783,608,1.9613
10.3827,591,1.9065
10.3870,583,1.8806
10.3913,600,1.9355
10.3960,625,2.0161
10.4003,607,1.9581
10.4046,583,1.8806
10.4089,591,1.9065
10.4132,613,1.9774
10.4174,623,2.0097
10.4217,603,1.9452
10.4259,587,1.8935
10.4301,608,1.9613
10.4343,631,2.0355
10.4386,631,2.0355
10.4428,611,1.9710
10.4471,605,1.9516
10.4514,628,2.0258
10.4556,647,2.0871
10.4599,635,2.0484
10.4641,621,2.0032
10.4684,627,2.0226
10.4728,648,2.0903
10.4771,658,2.1226
10.4821,641,2.0677
10.4864,628,2.0258
10.4907,652,2.1032
10.4950,681,2.1968
10.4994,676,2.1806
10.5039,658,2.1226
10.5082,665,2.1452
10.5126,691,2.2290
10.5169,709,2.2871
10.5213,689,2.2226
10.5256,671,2.1645
10.5299,690,2.2258
10.5342,718,2.3161
10.5385,719,2.3194
10.5435,696,2.2452
10.5478,696,2.2452
10.5522,718,2.3161
10.5567,738,2.3806
10.5611,719,2.3194
10.5656,693,2.2355
10.5700,701,2.2613
10.5745,721,2.3258
10.5789,711,2.2935
10.5835,681,2.1968
10.5880,666,2.1484
10.5925,676,2.1806
10.5970,674,2.1742
10.6017,639,2.0613
10.6062,606,1.9548
10.6106,617,1.9903
10.6150,630,2.0323
10.6194,612,1.9742
10.6238,575,1.8548
10.6283,564,1.8194
10.6327,582,1.8774
10.6370,598,1.9290
10.6414,580,1.8710
10.6458,560,1.8065
10.6502,573,1.8484
10.6546,592,1.9097
10.6590,587,1.8935
10.6633,566,1.8258
10.6677,558,1.8000
10.6721,581,1.8742
10.6765,605,1.9516
10.6809,590,1.9032
10.6853,564,1.8194
10.6897,572,1.8452
10.6941,595,1.9194
10.6990,601,1.9387
10.7043,575,1.8548
10.7087,577,1.8613
10.7131,601,1.9387
10.7175,615,1.9839
10.7219,595,1.9194
10.7263,569,1.8355
10.7307,582,1.8774
10.7350,607,1.9581
10.7394,597,1.9258
10.7439,574,1.8516
10.7483,570,1.8387
10.7527,587,1.8935
10.7571,602,1.9419
10.7615,578,1.8645
10.7662,554,1.7871
10.7706,571,1.8419
10.7750,598,1.9290
10.7794,589,1.9000
10.7838,560,1.8065
10.7883,551,1.7774
10.7928,569,1.8355
10.7972,586,1.8903
10.8017,567,1.8290
10.8061,541,1.7452
10.8105,557,1.7968
10.8149,578,1.8645
10.8194,567,1.8290
10.8238,541,1.7452
10.8282,537,1.7323
10.8325,557,1.7968
10.8369,579,1.8677
10.8414,563,1.8161
10.8462,543,1.7516
10.8505,556,1.7935
10.8549,574,1.8516
10.8593,567,1.8290
10.8641,542,1.7484
10.8692,541,1.7452
10.8736,560,1.8065
10.8781,564,1.8194
10.8825,543,1.7516
10.8868,524,1.6903
10.8912,543,1.7516
10.8956,567,1.8290
10.9000,554,1.7871
10.9050,529,1.7065
10.9094,538,1.7355
10.9138,562,1.8129
10.9182,564,1.8194
10.9226,542,1.7484
10.9270,520,1.6774
10.9315,538,1.7355
10.9358,563,1.8161
10.9403,551,1.7774
10.9447,527,1.7000
10.9491,531,1.7129
10.9535,554,1.7871
10.9579,568,1.8323
10.9624,545,1.7581
10.9668,522,1.6839
10.9712,539,1.7387
10.9763,561,1.8097
10.9808,545,1.7581
10.9852,525,1.6935
10.9896,532,1.7161
10.9940,553,1.7839
10.9984,563,1.8161
11.0028,548,1.7677
11.0072,538,1.7355
11.0115,558,1.8000
11.0159,580,1.8710
11.0203,568,1.8323
11.0246,545,1.7581
11.0290,551,1.7774
11.0337,577,1.8613
11.0381,585,1.8871
11.0425,557,1.7968
11.0468,530,1.7097
11.0512,540,1.7419
11.0556,556,1.7935
11.0600,544,1.7548
11.0643,522,1.6839
11.0687,522,1.6839
11.0730,541,1.7452
11.0774,555,1.7903
11.0818,539,1.7387
11.0861,516,1.6645
11.0905,527,1.7000
11.0953,548,1.7677
11.0996,538,1.7355
11.1040,508,1.6387
11.1083,491,1.5839
11.1127,508,1.6387
11.1171,553,1.7839
11.1214,600,1.9355
11.1258,668,2.1548
11.1302,796,2.5677
11.1345,960,3.0968
11.1389,1000,3.2258
11.1433,1002,3.2323
11.1476,1002,3.2323
11.1520,1003,3.2355
11.1568,992,3.2000
11.1637,716,2.3097
11.1681,561,1.8097
11.1725,507,1.6355
11.1774,508,1.6387
11.1817,491,1.5839
11.1861,468,1.5097
11.1904,479,1.5452
11.1948,500,1.6129
11.1991,502,1.6194
11.2034,484,1.5613
11.2077,470,1.5161
11.2120,487,1.5710
11.2163,509,1.6419
11.2206,494,1.5935
11.2249,474,1.5290
11.2292,481,1.5516
11.2335,507,1.6355
11.2378,519,1.6742
11.2421,500,1.6129
11.2464,479,1.5452
11.2507,499,1.6097
11.2550,530,1.7097
11.2599,528,1.7032
11.2642,500,1.6129
11.2685,496,1.6000
11.2728,519,1.6742
11.2772,543,1.7516
11.2815,529,1.7065
11.2858,508,1.6387
11.2902,522,1.6839
11.2945,550,1.7742
11.2988,562,1.8129
11.3031,544,1.7548
11.3074,525,1.6935
11.3117,542,1.7484
11.3159,568,1.8323
11.3207,561,1.8097
11.3250,546,1.7613
11.3293,555,1.7903
11.3337,582,1.8774
11.3381,600,1.9355
11.3424,587,1.8935
11.3467,571,1.8419
11.3510,593,1.9129
11.3552,624,2.0129
11.3595,625,2.0161
11.3639,605,1.9516
11.3682,600,1.9355
11.3724,621,2.0032
11.3767,649,2.0935
11.3810,638,2.0581
11.3853,624,2.0129
11.3896,633,2.0419
11.3939,650,2.0968
11.3981,656,2.1161
11.4024,628,2.0258
11.4069,598,1.9290
11.4112,605,1.9516
11.4154,627,2.0226
11.4196,617,1.9903
11.4239,580,1.8710
11.4281,555,1.7903
11.4323,562,1.8129
11.4365,576,1.8581
11.4408,552,1.7806
11.4450,517,1.6677
11.4493,512,1.6516
11.4535,528,1.7032
11.4579,537,1.7323
11.4622,520,1.6774
11.4665,496,1.6000
11.4709,508,1.6387
11.4752,528,1.7032
11.4795,526,1.6968
11.4843,506,1.6323
11.4887,505,1.6290
11.4930,529,1.7065
11.4973,546,1.7613
11.5016,528,1.7032
11.5060,506,1.6323
11.5103,522,1.6839
11.5146,550,1.7742
11.5189,555,1.7903
11.5231,534,1.7226
11.5273,517,1.6677
11.5316,539,1.7387
11.5359,567,1.8290
11.5402,567,1.8290
11.5445,548,1.7677
11.5488,543,1.7516
11.5532,560,1.8065
11.5576,578,1.8645
11.5619,559,1.8032
11.5663,539,1.7387
11.5706,555,1.7903
11.5749,583,1.8806
11.5792,595,1.9194
11.5835,574,1.8516
11.5878,553,1.7839
11.5921,567,1.8290
11.5964,587,1.8935
11.6008,572,1.8452
11.6051,548,1.7677
11.6095,551,1.7774
11.6139,575,1.8548
11.6183,587,1.8935
11.6226,567,1.8290
11.6276,546,1.7613
11.6320,569,1.8355
11.6363,594,1.9161
11.6406,581,1.8742
11.6448,555,1.7903
11.6491,552,1.7806
11.6534,574,1.8516
11.6578,591,1.9065
11.6621,572,1.8452
11.6665,552,1.7806
11.6708,568,1.8323
11.6751,592,1.9097
11.6794,592,1.9097
11.6837,571,1.8419
11.6880,554,1.7871
11.6923,575,1.8548
11.6966,601,1.9387
11.7009,587,1.8935
11.7052,562,1.8129
11.7095,563,1.8161
11.7139,585,1.8871
11.7181,601,1.9387
11.7224,584,1.8839
11.7268,560,1.8065
11.7311,574,1.8516
11.7354,600,1.9355
11.7399,602,1.9419
11.7442,581,1.8742
11.7485,570,1.8387
11.7528,588,1.8968
11.7591,609,1.9645
11.7638,586,1.8903
11.7681,572,1.8452
11.7724,590,1.9032
11.7767,611,1.9710
11.7809,601,1.9387
11.7851,577,1.8613
11.7894,577,1.8613
11.7937,599,1.9323
11.7981,612,1.9742
11.8024,594,1.9161
11.8067,573,1.8484
11.8110,589,1.9000
11.8159,618,1.9935
11.8201,615,1.9839
11.8243,589,1.9000
11.8286,575,1.8548
11.8328,591,1.9065
11.8370,621,2.0032
11.8413,616,1.9871
11.8455,599,1.9323
11.8498,602,1.9419
11.8540,622,2.0065
11.8583,634,2.0452
11.8625,614,1.9806
11.8667,598,1.9290
11.8709,611,1.9710
11.8752,634,2.0452
11.8794,631,2.0355
11.8836,603,1.9452
11.8879,576,1.8581
11.8921,587,1.8935
11.8963,606,1.9548
11.9006,600,1.9355
11.9048,580,1.8710
11.9091,573,1.8484
11.9138,591,1.9065
11.9181,609,1.9645
11.9223,591,1.9065
11.9266,564,1.8194
11.9308,575,1.8548
11.9350,589,1.9000
11.9393,583,1.8806
11.9435,550,1.7742
11.9477,529,1.7065
11.9519,567,1.8290
11.9562,652,2.1032
11.9604,728,2.3484
11.9646,811,2.6161
11.9688,932,3.0065
11.9730,1000,3.2258
11.9773,1003,3.2355
11.9816,1001,3.2290
11.9858,1000,3.2258
11.9900,999,3.2226
11.9942,948,3.0581
11.9985,790,2.5484
12.0027,625,2.0161
12.0070,513,1.6548
12.0113,497,1.6032
12.0160,522,1.6839
12.0202,523,1.6871
12.0245,501,1.6161
12.0287,489,1.5774
12.0329,507,1.6355
12.0372,528,1.7032
12.0415,511,1.6484
12.0458,482,1.5548
12.0501,482,1.5548
12.0544,504,1.6258
12.0589,517,1.6677
12.0637,494,1.5935
12.0680,473,1.5258
12.0723,487,1.5710
12.0766,511,1.6484
12.0815,500,1.6129
12.0858,475,1.5323
12.0903,483,1.5581
12.0946,505,1.6290
12.0989,517,1.6677
12.1032,499,1.6097
12.1075,479,1.5452
12.1118,494,1.5935
12.1162,518,1.6710
12.1205,515,1.6613
12.1248,492,1.5871
12.1291,479,1.5452
12.1334,495,1.5968
12.1376,516,1.6645
12.1419,503,1.6226
12.1462,482,1.5548
12.1505,491,1.5839
12.1548,512,1.6516
12.1591,520,1.6774
12.1634,508,1.6387
12.1677,493,1.5903
12.1720,515,1.6613
12.1763,543,1.7516
12.1806,538,1.7355
12.1849,521,1.6806
12.1892,518,1.6710
12.1935,542,1.7484
12.1978,565,1.8226
12.2021,548,1.7677
12.2067,522,1.6839
12.2110,533,1.7194
12.2153,558,1.8000
12.2197,558,1.8000
12.2246,538,1.7355
12.2289,525,1.6935
12.2332,536,1.7290
12.2375,555,1.7903
12.2418,531,1.7129
12.2461,497,1.6032
12.2504,491,1.5839
12.2547,500,1.6129
12.2590,496,1.6000
12.2633,461,1.4871
12.2676,425,1.3710
12.2719,432,1.3935
12.2762,444,1.4323
12.2805,425,1.3710
12.2848,391,1.2613
12.2891,374,1.2065
12.2934,385,1.2419
12.2977,403,1.3000
12.3022,379,1.2226
12.3065,350,1.1290
12.3109,356,1.1484
12.3152,383,1.2355
12.3195,392,1.2645
12.3238,372,1.2000
12.3281,350,1.1290
12.3324,367,1.1839
12.3367,393,1.2677
12.3410,384,1.2387
12.3453,357,1.1516
12.3496,350,1.1290
12.3539,370,1.1935
12.3582,391,1.2613
12.3625,377,1.2161
12.3668,352,1.1355
12.3711,363,1.1710
12.3754,387,1.2484
12.3797,391,1.2613
12.3841,367,1.1839
12.3884,349,1.1258
12.3928,365,1.1774
12.3970,388,1.2516
12.4013,377,1.2161
12.4056,349,1.1258
12.4102,344,1.1097
12.4145,360,1.1613
12.4188,375,1.2097
12.4231,355,1.1452
12.4273,330,1.0645
12.4317,343,1.1065
12.4360,364,1.1742
12.4403,357,1.1516
12.4446,332,1.0710
12.4489,320,1.0323
12.4532,336,1.0839
12.4575,354,1.1419
12.4618,336,1.0839
12.4661,311,1.0032
12.4704,318,1.0258
12.4746,338,1.0903
12.4788,347,1.1194
12.4830,324,1.0452
12.4872,300,0.9677
12.4915,310,1.0000
12.4957,334,1.0774
12.5000,337,1.0871
12.5043,316,1.0194
12.5089,304,0.9806
12.5132,327,1.0548
12.5176,350,1.1290
12.5219,327,1.0548
12.5263,297,0.9581
12.5307,301,0.9710
12.5350,323,1.0419
12.5393,331,1.0677
12.5436,312,1.0065
12.5480,298,0.9613
12.5523,314,1.0129
12.5567,331,1.0677
12.5609,320,1.0323
12.5652,297,0.9581
12.5695,292,0.9419
12.5739,315,1.0161
12.5782,334,1.0774
12.5825,316,1.0194
12.5867,296,0.9548
12.5910,304,0.9806
12.5953,327,1.0548
12.5996,333,1.0742
12.6039,314,1.0129
12.6082,291,0.9387
12.6125,310,1.0000
12.6168,335,1.0806
12.6210,327,1.0548
12.6252,307,0.9903
12.6298,301,0.9710
12.6340,320,1.0323
12.6382,338,1.0903
12.6424,321,1.0355
12.6466,298,0.9613
12.6508,305,0.9839
12.6551,327,1.0548
12.6593,340,1.0968
12.6637,323,1.0419
12.6681,308,0.9935
12.6724,328,1.0581
12.6767,346,1.1161
12.6809,332,1.0710
12.6851,308,0.9935
12.6893,300,0.9677
12.6936,321,1.0355
12.6979,348,1.1226
12.7021,337,1.0871
12.7063,312,1.0065
12.7105,317,1.0226
12.7154,343,1.1065
12.7197,353,1.1387
12.7239,335,1.0806
12.7281,314,1.0129
12.7323,331,1.0677
12.7366,356,1.1484
12.7408,353,1.1387
12.7450,333,1.0742
12.7492,326,1.0516
12.7534,348,1.1226
12.7577,371,1.1968
12.7619,360,1.1613
12.7662,338,1.0903
12.7705,336,1.0839
12.7748,353,1.1387
12.7791,365,1.1774
12.7835,349,1.1258
12.7878,333,1.0742
12.7921,355,1.1452
12.7965,387,1.2484
12.8010,386,1.2452
12.8054,363,1.1710
12.8097,357,1.1516
12.8140,384,1.2387
12.8183,412,1.3290
12.8226,397,1.2806
12.8269,376,1.2129
12.8312,385,1.2419
12.8355,408,1.3161
12.8398,413,1.3323
12.8441,387,1.2484
12.8484,364,1.1742
12.8528,375,1.2097
12.8572,394,1.2710
12.8616,386,1.2452
12.8659,365,1.1774
12.8702,363,1.1710
12.8745,386,1.2452
12.8793,400,1.2903
12.8836,378,1.2194
12.8879,359,1.1581
12.8922,376,1.2129
12.8965,399,1.2871
12.9008,392,1.2645
12.9050,365,1.1774
12.9092,350,1.1290
12.9134,367,1.1839
12.9177,414,1.3355
12.9220,454,1.4645
12.9262,509,1.6419
12.9304,608,1.9613
12.9347,744,2.4000
12.9389,858,2.7677
12.9432,916,2.9548
12.9474,923,2.9774
12.9516,884,2.8516
12.9558,799,2.5774
12.9600,691,2.2290
12.9644,574,1.8516
12.9688,475,1.5323
12.9730,419,1.3516
12.9774,395,1.2742
12.9816,372,1.2000
12.9859,347,1.1194
12.9901,344,1.1097
12.9944,372,1.2000
12.9987,396,1.2774
13.0031,382,1.2323
13.0074,364,1.1742
13.0117,383,1.2355
13.0165,414,1.3355
13.0209,410,1.3226
13.0252,391,1.2613
13.0333,402,1.2968
13.0376,425,1.3710
13.0418,415,1.3387
13.0461,398,1.2839
13.0503,403,1.3000
13.0545,428,1.3806
13.0591,446,1.4387
13.0634,430,1.3871
13.0676,413,1.3323
13.0719,431,1.3903
13.0761,454,1.4645
13.0803,455,1.4677
13.0846,438,1.4129
13.0888,430,1.3871
13.0930,451,1.4548
13.0973,475,1.5323
13.1015,470,1.5161
13.1058,456,1.4710
13.1100,459,1.4806
13.1142,481,1.5516
13.1185,506,1.6323
13.1228,496,1.6000
13.1271,481,1.5516
13.1313,497,1.6032
13.1355,524,1.6903
13.1397,539,1.7387
13.1440,525,1.6935
13.1482,515,1.6613
13.1525,539,1.7387
13.1567,570,1.8387
13.1612,578,1.8645
13.1657,562,1.8129
13.1700,556,1.7935
13.1742,576,1.8581
13.1784,601,1.9387
13.1826,586,1.8903
13.1869,570,1.8387
13.1911,581,1.8742
13.1955,604,1.9484
13.1997,616,1.9871
13.2039,598,1.9290
13.2082,575,1.8548
13.2124,583,1.8806
13.2171,600,1.9355
13.2214,586,1.8903
13.2256,558,1.8000
13.2299,543,1.7516
13.2341,555,1.7903
13.2383,564,1.8194
13.2430,533,1.7194
13.2473,500,1.6129
13.2515,503,1.6226
13.2557,518,1.6710
13.2600,523,1.6871
13.2642,504,1.6258
13.2685,484,1.5613
13.2728,496,1.6000
13.2771,517,1.6677
13.2816,510,1.6452
13.2860,491,1.5839
13.2907,492,1.5871
13.2950,517,1.6677
13.2993,530,1.7097
13.3036,513,1.6548
13.3085,496,1.6000
13.3134,520,1.6774
13.3177,543,1.7516
13.3220,532,1.7161
13.3264,514,1.6581
13.3306,516,1.6645
13.3349,538,1.7355
13.3391,553,1.7839
13.3433,537,1.7323
13.3476,518,1.6710
13.3518,533,1.7194
13.3560,558,1.8000
13.3603,564,1.8194
13.3645,543,1.7516
13.3687,522,1.6839
13.3729,539,1.7387
13.3772,560,1.8065
13.3815,555,1.7903
13.3864,529,1.7065
13.3908,527,1.7000
13.3952,547,1.7645
13.3996,557,1.7968
13.4040,540,1.7419
13.4084,521,1.6806
13.4129,538,1.7355
13.4175,562,1.8129
13.4220,551,1.7774
13.4264,527,1.7000
13.4309,526,1.6968
13.4353,546,1.7613
13.4398,557,1.7968
13.4443,539,1.7387
13.4487,525,1.6935
13.4532,546,1.7613
13.4576,563,1.8161
13.4620,547,1.7645
13.4664,524,1.6903
13.4708,527,1.7000
13.4752,553,1.7839
13.4796,566,1.8258
13.4840,551,1.7774
13.4884,535,1.7258
13.4928,553,1.7839
13.4973,575,1.8548
13.5017,563,1.8161
13.5060,539,1.7387
13.5104,541,1.7452
13.5148,563,1.8161
13.5192,580,1.8710
13.5235,563,1.8161
13.5279,540,1.7419
13.5323,555,1.7903
13.5367,578,1.8645
13.5411,575,1.8548
13.5455,553,1.7839
13.5499,543,1.7516
13.5543,567,1.8290
13.5595,591,1.9065
13.5648,572,1.8452
13.5692,550,1.7742
13.5736,566,1.8258
13.5780,589,1.9000
13.5824,577,1.8613
13.5867,563,1.8161
13.5911,573,1.8484
13.5955,598,1.9290
13.5999,613,1.9774
13.6043,592,1.9097
13.6086,579,1.8677
13.6130,601,1.9387
13.6174,633,2.0419
13.6218,635,2.0484
13.6262,617,1.9903
13.6306,609,1.9645
13.6350,616,1.9871
13.6394,624,2.0129
13.6438,598,1.9290
13.6482,571,1.8419
13.6526,579,1.8677
13.6570,599,1.9323
13.6614,598,1.9290
13.6658,575,1.8548
13.6701,571,1.8419
13.6745,591,1.9065
13.6789,611,1.9710
13.6832,594,1.9161
13.6876,571,1.8419
13.6920,577,1.8613
13.6964,596,1.9226
13.7008,591,1.9065
13.7053,563,1.8161
13.7097,549,1.7710
13.7140,588,1.8968
13.7185,661,2.1323
13.7229,728,2.3484
13.7273,804,2.5935
13.7317,932,3.0065
13.7363,1000,3.2258
13.7406,1001,3.2290
13.7450,1001,3.2290
13.7494,1001,3.2290
13.7538,998,3.2194
13.7582,935,3.0161
13.7626,784,2.5290
13.7670,642,2.0710
13.7714,565,1.8226
13.7758,550,1.7742
13.7802,553,1.7839
13.7846,535,1.7258
13.7890,517,1.6677
13.7934,537,1.7323
13.7979,560,1.8065
13.8023,552,1.7806
13.8067,533,1.7194
13.8111,536,1.7290
13.8160,560,1.8065
13.8204,566,1.8258
13.8248,548,1.7677
13.8292,536,1.7290
13.8337,558,1.8000
13.8381,577,1.8613
13.8432,555,1.7903
13.8476,532,1.7161
13.8520,550,1.7742
13.8564,582,1.8774
13.8608,589,1.9000
13.8651,572,1.8452
13.8696,560,1.8065
13.8739,582,1.8774
13.8784,607,1.9581
13.8828,596,1.9226
13.8872,580,1.8710
13.8916,594,1.9161
13.8960,616,1.9871
13.9004,624,2.0129
13.9049,609,1.9645
13.9093,596,1.9226
13.9137,620,2.0000
13.9181,651,2.1000
13.9225,641,2.0677
13.9269,618,1.9935
13.9312,626,2.0194
13.9356,653,2.1065
13.9399,673,2.1710
13.9443,661,2.1323
13.9487,647,2.0871
13.9530,668,2.1548
13.9574,695,2.2419
13.9618,695,2.2419
13.9661,679,2.1903
13.9705,679,2.1903
13.9749,704,2.2710
13.9793,727,2.3452
13.9836,706,2.2774
13.9879,684,2.2065
13.9923,696,2.2452
13.9967,716,2.3097
14.0010,715,2.3065
14.0054,688,2.2194
14.0097,669,2.1581
14.0141,681,2.1968
14.0184,693,2.2355
14.0232,658,2.1226
14.0276,621,2.0032
14.0320,614,1.9806
14.0363,626,2.0194
14.0407,625,2.0161
14.0451,599,1.9323
14.0494,575,1.8548
14.0538,583,1.8806
14.0582,600,1.9355
14.0625,586,1.8903
14.0669,563,1.8161
14.0712,568,1.8323
14.0756,590,1.9032
14.0800,602,1.9419
14.0843,584,1.8839
14.0887,563,1.8161
14.0931,576,1.8581
14.0974,599,1.9323
14.1018,600,1.9355
14.1066,578,1.8645
14.1109,578,1.8645
14.1153,600,1.9355
14.1197,613,1.9774
14.1242,593,1.9129
14.1285,577,1.8613
14.1329,599,1.9323
14.1373,620,2.0000
14.1416,620,2.0000
14.1460,603,1.9452
14.1503,594,1.9161
14.1546,614,1.9806
14.1589,633,2.0419
14.1632,617,1.9903
14.1680,591,1.9065
14.1724,601,1.9387
14.1767,623,2.0097
14.1810,629,2.0290
14.1853,610,1.9677
14.1895,597,1.9258
14.1938,610,1.9677
14.1981,631,2.0355
14.2023,619,1.9968
14.2065,595,1.9194
14.2107,589,1.9000
14.2150,613,1.9774
14.2192,632,2.0387
14.2235,613,1.9774
14.2277,590,1.9032
14.2320,599,1.9323
14.2363,618,1.9935
14.2405,626,2.0194
14.2447,607,1.9581
14.2489,584,1.8839
14.2531,603,1.9452
14.2574,628,2.0258
14.2617,627,2.0226
14.2661,598,1.9290
14.2704,584,1.8839
14.2747,606,1.9548
14.2797,629,2.0290
14.2840,608,1.9613
14.2882,584,1.8839
14.2925,597,1.9258
14.2968,623,2.0097
14.3010,626,2.0194
14.3052,603,1.9452
14.3095,586,1.8903
14.3137,602,1.9419
14.3182,627,2.0226
14.3226,617,1.9903
14.3269,593,1.9129
14.3316,592,1.9097
14.3359,616,1.9871
14.3402,628,2.0258
14.3445,607,1.9581
14.3488,582,1.8774
14.3531,600,1.9355
14.3574,634,2.0452
14.3617,647,2.0871
14.3660,634,2.0452
14.3703,623,2.0097
14.3746,638,2.0581
14.3789,660,2.1290
14.3832,649,2.0935
14.3875,631,2.0355
14.3917,631,2.0355
14.3960,654,2.1097
14.4002,662,2.1355
14.4045,630,2.0323
14.4087,595,1.9194
14.4134,600,1.9355
14.4177,613,1.9774
14.4219,602,1.9419
14.4264,573,1.8484
14.4307,560,1.8065
14.4349,578,1.8645
14.4392,594,1.9161
14.4434,572,1.8452
14.4477,546,1.7613
14.4519,547,1.7645
14.4561,568,1.8323
14.4604,578,1.8645
14.4648,555,1.7903
14.4691,524,1.6903
14.4734,530,1.7097
14.4777,547,1.7645
14.4821,545,1.7581
14.4864,551,1.7774
14.4907,606,1.9548
14.4953,723,2.3323
14.4997,862,2.7806
14.5039,992,3.2000
14.5082,1001,3.2290
14.5125,1004,3.2387
14.5168,1003,3.2355
14.5211,1005,3.2419
14.5253,1002,3.2323
14.5296,968,3.1226
14.5339,773,2.4935
14.5381,610,1.9677
14.5424,519,1.6742
14.5466,475,1.5323
14.5508,466,1.5032
14.5551,488,1.5742
14.5594,508,1.6387
14.5637,489,1.5774
14.5681,457,1.4742
14.5724,455,1.4677
14.5774,475,1.5323
14.5818,474,1.5290
14.5861,452,1.4581
14.5906,440,1.4194
14.5949,460,1.4839
14.5992,485,1.5645
14.6035,471,1.5194
14.6078,446,1.4387
14.6121,447,1.4419
14.6164,465,1.5000
14.6206,478,1.5419
14.6249,461,1.4871
14.6292,442,1.4258
14.6334,460,1.4839
14.6376,483,1.5581
14.6418,483,1.5581
14.6461,462,1.4903
14.6503,449,1.4484
14.6545,472,1.5226
14.6589,499,1.6097
14.6632,486,1.5677
14.6674,460,1.4839
14.6716,461,1.4871
14.6758,480,1.5484
14.6800,495,1.5968
14.6843,483,1.5581
14.6885,463,1.4935
14.6929,475,1.5323
14.6972,502,1.6194
14.7016,515,1.6613
14.7059,499,1.6097
14.7102,485,1.5645
14.7145,504,1.6258
14.7188,529,1.7065
14.7242,520,1.6774
14.7286,504,1.6258
14.7329,521,1.6806
14.7373,547,1.7645
14.7416,549,1.7710
14.7461,530,1.7097
14.7504,516,1.6645
14.7548,531,1.7129
14.7600,548,1.7677
14.7650,524,1.6903
14.7694,501,1.6161
14.7737,519,1.6742
14.7781,535,1.7258
14.7824,515,1.6613
14.7867,473,1.5258
14.7911,450,1.4516
14.7955,454,1.4645
14.7998,456,1.4710
14.8041,427,1.3774
14.8090,390,1.2581
14.8133,392,1.2645
14.8176,402,1.2968
14.8223,391,1.2613
14.8266,365,1.1774
14.8309,351,1.1323
14.8353,366,1.1806
14.8395,388,1.2516
14.8438,370,1.1935
14.8482,339,1.0935
14.8525,343,1.1065
14.8569,366,1.1806
14.8612,375,1.2097
14.8655,356,1.1484
14.8698,334,1.0774
14.8740,353,1.1387
14.8783,376,1.2129
14.8826,372,1.2000
14.8869,353,1.1387
14.8913,349,1.1258
14.8955,368,1.1871
14.8998,390,1.2581
14.9042,372,1.2000
14.9085,351,1.1323
14.9128,357,1.1516
14.9171,376,1.2129
14.9214,383,1.2355
14.9258,365,1.1774
14.9302,345,1.1129
14.9345,359,1.1581
14.9388,381,1.2290
14.9431,370,1.1935
14.9474,348,1.1226
14.9517,347,1.1194
14.9559,368,1.1871
14.9602,382,1.2323
14.9645,361,1.1645
14.9688,336,1.0839
14.9731,347,1.1194
14.9774,373,1.2032
14.9817,379,1.2226
14.9861,355,1.1452
14.9906,333,1.0742
14.9949,349,1.1258
14.9993,372,1.2000
15.0036,358,1.1548
15.0080,334,1.0774
15.0123,337,1.0871
15.0169,361,1.1645
15.0213,368,1.1871
15.0293,327,1.0548
15.0336,337,1.0871
15.0384,361,1.1645
15.0427,356,1.1484
15.0470,336,1.0839
15.0512,331,1.0677
15.0555,353,1.1387
15.0597,372,1.2000
15.0639,357,1.1516
15.0681,336,1.0839
15.0723,341,1.1000
15.0766,358,1.1548
15.0812,371,1.1968
15.0856,354,1.1419
15.0898,339,1.0935
15.0940,356,1.1484
15.0984,379,1.2226
15.1026,376,1.2129
15.1068,361,1.1645
15.1111,361,1.1645
15.1153,393,1.2677
15.1196,418,1.3484
15.1238,404,1.3032
15.1281,383,1.2355
15.1323,393,1.2677
15.1366,419,1.3516
15.1408,441,1.4226
15.1450,429,1.3839
15.1493,402,1.2968
15.1535,405,1.3065
15.1578,421,1.3581
15.1620,417,1.3452
15.1662,392,1.2645
15.1704,369,1.1903
15.1746,379,1.2226
15.1789,400,1.2903
15.1832,395,1.2742
15.1874,373,1.2032
15.1917,368,1.1871
15.1959,390,1.2581
15.2002,412,1.3290
15.2044,397,1.2806
15.2087,372,1.2000
15.2132,375,1.2097
15.2175,392,1.2645
15.2217,393,1.2677
15.2259,368,1.1871
15.2301,347,1.1194
15.2344,375,1.2097
15.2386,436,1.4065
15.2428,500,1.6129
15.2470,568,1.8323
15.2512,681,2.1968
15.2554,847,2.7323
15.2597,992,3.2000
15.2639,1000,3.2258
15.2681,998,3.2194
15.2723,970,3.1290
15.2765,830,2.6774
15.2808,674,2.1742
15.2850,518,1.6710
15.2893,398,1.2839
15.2935,366,1.1806
15.2977,375,1.2097
15.3020,380,1.2258
15.3062,362,1.1677
15.3104,349,1.1258
15.3152,368,1.1871
15.3195,389,1.2548
15.3237,374,1.2065
15.3280,355,1.1452
15.3322,359,1.1581
15.3365,383,1.2355
15.3408,405,1.3065
15.3450,392,1.2645
15.3492,376,1.2129
15.3534,386,1.2452
15.3576,404,1.3032
15.3619,411,1.3258
15.3689,409,1.3194
15.3732,428,1.3806
15.3774,456,1.4710
15.3817,468,1.5097
15.3859,452,1.4581
15.3903,438,1.4129
15.3945,454,1.4645
15.3988,478,1.5419
15.4030,479,1.5452
15.4072,463,1.4935
15.4114,458,1.4774
15.4157,479,1.5452
15.4199,501,1.6161
15.4242,488,1.5742
15.4285,471,1.5194
15.4327,483,1.5581
15.4369,507,1.6355
15.4412,523,1.6871
15.4455,506,1.6323
15.4497,488,1.5742
15.4538,511,1.6484
15.4581,542,1.7484
15.4624,550,1.7742
15.4668,537,1.7323
15.4711,528,1.7032
15.4754,555,1.7903
15.4798,584,1.8839
15.4843,574,1.8516
15.4887,552,1.7806
15.4930,566,1.8258
15.4973,593,1.9129
15.5016,607,1.9581
15.5059,589,1.9000
15.5102,568,1.8323
15.5145,585,1.8871
15.5189,606,1.9548
15.5232,597,1.9258
15.5275,570,1.8387
15.5318,556,1.7935
15.5361,566,1.8258
15.5405,578,1.8645
15.5448,555,1.7903
15.5491,519,1.6742
15.5534,512,1.6516
15.5577,522,1.6839
15.5620,520,1.6774
15.5663,492,1.5871
15.5706,465,1.5000
15.5748,479,1.5452
15.5791,499,1.6097
15.5835,490,1.5806
15.5878,467,1.5065
15.5921,465,1.5000
15.5964,486,1.5677
15.6007,503,1.6226
15.6050,487,1.5710
15.6093,465,1.5000
15.6136,476,1.5355
15.6178,500,1.6129
15.6221,511,1.6484
15.6263,494,1.5935
15.6306,480,1.5484
15.6348,500,1.6129
15.6395,528,1.7032
15.6438,522,1.6839
15.6481,502,1.6194
15.6523,501,1.6161
15.6565,521,1.6806
15.6607,538,1.7355
15.6654,520,1.6774
15.6698,502,1.6194
15.6741,517,1.6677
15.6784,539,1.7387
15.6827,537,1.7323
15.6870,513,1.6548
15.6913,505,1.6290
15.6956,527,1.7000
15.6998,545,1.7581
15.7041,528,1.7032
15.7084,506,1.6323
15.7128,508,1.6387
15.7171,532,1.7161
15.7213,542,1.7484
15.7256,524,1.6903
15.7299,500,1.6129
15.7342,514,1.6581
15.7385,534,1.7226
15.7428,535,1.7258
15.7475,516,1.6645
15.7518,510,1.6452
15.7560,530,1.7097
15.7602,553,1.7839
15.7644,541,1.7452
15.7686,518,1.6710
15.7729,517,1.6677
15.7771,534,1.7226
15.7813,543,1.7516
15.7855,530,1.7097
15.7899,514,1.6581
15.7942,537,1.7323
15.7985,561,1.8097
15.8027,558,1.8000
15.8069,533,1.7194
15.8112,518,1.6710
15.8155,538,1.7355
15.8197,566,1.8258
15.8240,554,1.7871
15.8282,533,1.7194
15.8325,532,1.7161
15.8369,556,1.7935
15.8411,570,1.8387
15.8453,557,1.7968
15.8496,537,1.7323
15.8538,548,1.7677
15.8581,574,1.8516
15.8623,581,1.8742
15.8665,560,1.8065
15.8707,540,1.7419
15.8750,555,1.7903
15.8792,574,1.8516
15.8834,570,1.8387
15.8877,550,1.7742
15.8919,548,1.7677
15.8962,572,1.8452
15.9004,592,1.9097
15.9047,577,1.8613
15.9090,557,1.7968
15.9134,566,1.8258
15.9177,589,1.9000
15.9221,603,1.9452
15.9264,592,1.9097
15.9313,586,1.8903
15.9356,607,1.9581
15.9400,626,2.0194
15.9443,614,1.9806
15.9487,597,1.9258
15.9530,608,1.9613
15.9574,636,2.0516
15.9618,649,2.0935
15.9661,626,2.0194
15.9704,601,1.9387
15.9748,609,1.9645
15.9792,620,2.0000
15.9835,605,1.9516
15.9881,573,1.8484
15.9928,573,1.8484
15.9971,597,1.9258
16.0014,613,1.9774
16.0057,591,1.9065
16.0100,569,1.8355
16.0142,580,1.8710
16.0186,606,1.9548
16.0228,609,1.9645
16.0272,583,1.8806
16.0315,561,1.8097
16.0359,572,1.8452
16.0405,586,1.8903
16.0449,570,1.8387
16.0493,579,1.8677
16.0545,677,2.1839
16.0590,793,2.5581
16.0634,918,2.9613
16.0679,1000,3.2258
16.0723,1001,3.2290
16.0768,1003,3.2355
16.0813,1002,3.2323
16.0859,1000,3.2258
16.0904,993,3.2032
16.0949,870,2.8065
16.1002,691,2.2290
16.1046,584,1.8839
16.1090,543,1.7516
16.1134,545,1.7581
16.1178,564,1.8194
16.1222,569,1.8355
16.1266,546,1.7613
16.1310,530,1.7097
16.1354,549,1.7710
16.1398,568,1.8323
16.1441,557,1.7968
16.1485,533,1.7194
16.1529,536,1.7290
16.1576,566,1.8258
16.1619,578,1.8645
16.1663,558,1.8000
16.1707,539,1.7387
16.1751,555,1.7903
16.1795,582,1.8774
16.1839,583,1.8806
16.1883,571,1.8419
16.1926,565,1.8226
16.1970,584,1.8839
16.2014,602,1.9419
16.2058,585,1.8871
16.2103,565,1.8226
16.2146,581,1.8742
16.2194,608,1.9613
16.2237,607,1.9581
16.2282,589,1.9000
16.2326,589,1.9000
16.2370,612,1.9742
16.2414,626,2.0194
16.2457,608,1.9613
16.2501,593,1.9129
16.2545,616,1.9871
16.2589,644,2.0774
16.2657,637,2.0548
16.2702,620,2.0000
16.2746,642,2.0710
16.2789,672,2.1677
16.2833,673,2.1710
16.2877,659,2.1258
16.2921,653,2.1065
16.2965,679,2.1903
16.3008,702,2.2645
16.3052,687,2.2161
16.3096,672,2.1677
16.3140,685,2.2097
16.3184,708,2.2839
16.3228,713,2.3000
16.3271,687,2.2161
16.3315,668,2.1548
16.3359,683,2.2032
16.3403,702,2.2645
16.3446,686,2.2129
16.3490,652,2.1032
16.3534,642,2.0710
16.3578,649,2.0935
16.3622,647,2.0871
16.3666,613,1.9774
16.3711,577,1.8613
16.3755,584,1.8839
16.3799,600,1.9355
16.3845,582,1.8774
16.3889,556,1.7935
16.3933,555,1.7903
16.3977,576,1.8581
16.4022,579,1.8677
16.4065,556,1.7935
16.4110,541,1.7452
16.4154,559,1.8032
16.4198,578,1.8645
16.4241,571,1.8419
16.4285,553,1.7839
16.4329,552,1.7806
16.4373,573,1.8484
16.4422,590,1.9032
16.4466,576,1.8581
16.4509,555,1.7903
16.4553,572,1.8452
16.4597,591,1.9065
16.4641,582,1.8774
16.4685,560,1.8065
16.4729,561,1.8097
16.4773,586,1.8903
16.4817,603,1.9452
16.4861,583,1.8806
16.4904,558,1.8000
16.4949,568,1.8323
16.4993,595,1.9194
16.5037,595,1.9194
16.5081,571,1.8419
16.5125,564,1.8194
16.5169,580,1.8710
16.5213,593,1.9129
16.5257,570,1.8387
16.5300,545,1.7581
16.5344,559,1.8032
16.5388,587,1.8935
16.5432,586,1.8903
16.5475,560,1.8065
16.5520,548,1.7677
16.5564,565,1.8226
16.5608,585,1.8871
16.5660,567,1.8290
16.5704,541,1.7452
16.5748,552,1.7806
16.5792,576,1.8581
16.5836,576,1.8581
16.5881,553,1.7839
16.5926,544,1.7548
16.5970,565,1.8226
16.6014,580,1.8710
16.6059,564,1.8194
16.6107,540,1.7419
16.6150,552,1.7806
16.6195,575,1.8548
16.6239,569,1.8355
16.6283,544,1.7548
16.6326,537,1.7323
16.6371,560,1.8065
16.6415,583,1.8806
16.6459,566,1.8258
16.6502,541,1.7452
16.6546,551,1.7774
16.6590,577,1.8613
16.6633,582,1.8774
16.6677,557,1.7968
16.6722,540,1.7419
16.6766,558,1.8000
16.6810,580,1.8710
16.6853,567,1.8290
16.6897,549,1.7710
16.6940,559,1.8032
16.6988,578,1.8645
16.7032,582,1.8774
16.7076,561,1.8097
16.7119,548,1.7677
16.7163,567,1.8290
16.7207,588,1.8968
16.7251,574,1.8516
16.7294,558,1.8000
16.7339,569,1.8355
16.7382,597,1.9258
16.7426,609,1.9645
16.7469,588,1.8968
16.7513,570,1.8387
16.7557,597,1.9258
16.7600,629,2.0290
16.7644,619,1.9968
16.7687,586,1.8903
16.7731,573,1.8484
16.7775,585,1.8871
16.7818,590,1.9032
16.7862,565,1.8226
16.7905,539,1.7387
16.7955,551,1.7774
16.7999,570,1.8387
16.8042,563,1.8161
16.8086,541,1.7452
16.8129,537,1.7323
16.8173,558,1.8000
16.8217,577,1.8613
16.8260,557,1.7968
16.8304,530,1.7097
16.8347,537,1.7323
16.8391,551,1.7774
16.8435,542,1.7484
16.8479,517,1.6677
16.8523,534,1.7226
16.8569,624,2.0129
16.8613,733,2.3645
16.8656,835,2.6935
16.8700,942,3.0387
16.8743,999,3.2226
16.8787,1002,3.2323
16.8830,1002,3.2323
16.8874,998,3.2194
16.8917,934,3.0129
16.8965,778,2.5097
16.9008,664,2.1419
16.9051,555,1.7903
16.9094,487,1.5710
16.9137,484,1.5613
16.9184,511,1.6484
16.9227,524,1.6903
16.9269,506,1.6323
16.9312,485,1.5645
16.9355,498,1.6065
16.9398,517,1.6677
16.9441,510,1.6452
16.9484,490,1.5806
16.9527,486,1.5677
16.9570,507,1.6355
16.9613,523,1.6871
16.9657,510,1.6452
16.9700,488,1.5742
16.9744,497,1.6032
16.9787,519,1.6742
16.9830,527,1.7000
16.9873,509,1.6419
16.9916,494,1.5935
16.9959,514,1.6581
17.0003,541,1.7452
17.0046,537,1.7323
17.0089,518,1.6710
17.0132,518,1.6710
17.0175,541,1.7452
17.0218,558,1.8000
17.0261,540,1.7419
17.0304,519,1.6742
17.0347,533,1.7194
17.0390,561,1.8097
17.0434,572,1.8452
17.0477,559,1.8032
17.0520,546,1.7613
17.0563,570,1.8387
17.0606,598,1.9290
17.0649,592,1.9097
17.0692,577,1.8613
17.0735,581,1.8742
17.0777,598,1.9290
17.0820,621,2.0032
17.0862,607,1.9581
17.0905,584,1.8839
17.0947,601,1.9387
17.0989,631,2.0355
17.1032,643,2.0742
17.1075,626,2.0194
17.1117,609,1.9645
17.1159,627,2.0226
17.1202,651,2.1000
17.1244,645,2.0806
17.1287,624,2.0129
17.1330,620,2.0000
17.1373,638,2.0581
17.1415,651,2.1000
17.1457,626,2.0194
17.1500,592,1.9097
17.1543,583,1.8806
17.1586,588,1.8968
17.1660,567,1.8290
17.1703,536,1.7290
17.1746,533,1.7194
17.1788,541,1.7452
17.1830,538,1.7355
17.1872,507,1.6355
17.1915,476,1.5355
17.1957,489,1.5774
17.1999,509,1.6419
17.2042,505,1.6290
17.2084,479,1.5452
17.2127,468,1.5097
17.2169,486,1.5677
17.2211,510,1.6452
17.2253,499,1.6097
17.2295,478,1.5419
17.2342,482,1.5548
17.2385,500,1.6129
17.2427,512,1.6516
17.2469,492,1.5871
17.2512,470,1.5161
17.2554,486,1.5677
17.2597,511,1.6484
17.2639,510,1.6452
17.2681,486,1.5677
17.2724,472,1.5226
17.2766,494,1.5935
17.2809,520,1.6774
17.2851,506,1.6323
17.2893,476,1.5355
17.2936,468,1.5097
17.2978,486,1.5677
17.3021,503,1.6226
17.3064,485,1.5645
17.3106,463,1.4935
17.3149,473,1.5258
17.3192,495,1.5968
17.3234,498,1.6065
17.3276,477,1.5387
17.3318,454,1.4645
17.3361,468,1.5097
17.3403,492,1.5871
17.3445,488,1.5742
17.3487,464,1.4968
17.3530,452,1.4581
17.3572,468,1.5097
17.3614,491,1.5839
17.3656,483,1.5581
17.3704,458,1.4774
17.3747,462,1.4903
17.3789,484,1.5613
17.3831,491,1.5839
17.3873,473,1.5258
17.3916,453,1.4613
17.3958,470,1.5161
17.4001,492,1.5871
17.4044,488,1.5742
17.4086,463,1.4935
17.4129,454,1.4645
17.4171,474,1.5290
17.4214,497,1.6032
17.4256,483,1.5581
17.4299,459,1.4806
17.4341,458,1.4774
17.4384,478,1.5419
17.4428,492,1.5871
17.4471,477,1.5387
17.4519,458,1.4774
17.4562,474,1.5290
17.4612,500,1.6129
17.4666,482,1.5548
17.4710,460,1.4839
17.4753,473,1.5258
17.4796,496,1.6000
17.4839,496,1.6000
17.4882,478,1.5419
17.4928,469,1.5129
17.4971,496,1.6000
17.5014,522,1.6839
17.5056,508,1.6387
17.5098,485,1.5645
17.5140,493,1.5903
17.5183,529,1.7065
17.5225,555,1.7903
17.5267,544,1.7548
17.5310,523,1.6871
17.5352,517,1.6677
17.5395,520,1.6774
17.5438,516,1.6645
17.5480,491,1.5839
17.5523,471,1.5194
17.5567,485,1.5645
17.5611,505,1.6290
17.5654,494,1.5935
17.5697,474,1.5290
17.5740,476,1.5355
17.5790,502,1.6194
17.5833,510,1.6452
17.5877,489,1.5774
17.5920,467,1.5065
17.5963,482,1.5548
17.6007,504,1.6258
17.6051,495,1.5968
17.6094,468,1.5097
17.6138,462,1.4903
17.6182,501,1.6161
17.6226,570,1.8387
17.6269,631,2.0355
17.6316,724,2.3355
17.6364,881,2.8419
17.6407,994,3.2065
17.6450,998,3.2194
17.6493,997,3.2161
17.6536,962,3.1032
17.6580,856,2.7613
17.6624,749,2.4161
17.6667,630,2.0323
17.6711,529,1.7065
17.6753,477,1.5387
17.6797,468,1.5097
17.6840,462,1.4903
17.6882,442,1.4258
17.6925,431,1.3903
17.6968,455,1.4677
17.7012,481,1.5516
17.7055,469,1.5129
17.7098,444,1.4323
17.7141,445,1.4355
17.7184,472,1.5226
17.7227,492,1.5871
17.7270,473,1.5258
17.7313,450,1.4516
17.7362,466,1.5032
17.7405,491,1.5839
17.7449,487,1.5710
17.7491,469,1.5129
17.7534,464,1.4968
17.7577,487,1.5710
17.7620,512,1.6516
17.7663,502,1.6194
17.7706,484,1.5613
17.7749,490,1.5806
17.7797,512,1.6516
17.7840,519,1.6742
17.7883,505,1.6290
17.7925,492,1.5871
17.7968,515,1.6613
17.8011,542,1.7484
17.8054,533,1.7194
17.8098,511,1.6484
17.8141,513,1.6548
17.8184,537,1.7323
17.8227,557,1.7968
17.8271,541,1.7452
17.8314,524,1.6903
17.8358,541,1.7452
17.8401,573,1.8484
17.8444,584,1.8839
17.8487,575,1.8548
17.8530,566,1.8258
17.8574,581,1.8742
17.8617,603,1.9452
17.8660,592,1.9097
17.8703,575,1.8548
17.8746,585,1.8871
17.8789,609,1.9645
17.8832,623,2.0097
17.8875,605,1.9516
17.8919,582,1.8774
17.8962,598,1.9290
17.9005,621,2.0032
17.9047,616,1.9871
17.9091,581,1.8742
17.9134,561,1.8097
17.9177,570,1.8387
17.9219,584,1.8839
17.9262,560,1.8065
17.9305,528,1.7032
17.9348,517,1.6677
17.9391,525,1.6935
17.9434,525,1.6935
17.9477,497,1.6032
17.9519,471,1.5194
17.9562,484,1.5613
17.9604,504,1.6258
17.9646,499,1.6097
17.9689,475,1.5323
17.9731,461,1.4871
17.9773,479,1.5452
17.9815,505,1.6290
17.9858,497,1.6032
17.9900,479,1.5452
17.9943,478,1.5419
17.9985,495,1.5968
18.0027,514,1.6581
18.0070,502,1.6194
18.0113,480,1.5484
18.0156,484,1.5613
18.0198,504,1.6258
18.0240,512,1.6516
18.0282,496,1.6000
18.0325,481,1.5516
18.0373,499,1.6097
18.0415,516,1.6645
18.0457,504,1.6258
18.0500,482,1.5548
18.0542,483,1.5581
18.0584,503,1.6226
18.0627,522,1.6839
18.0671,502,1.6194
18.0714,478,1.5419
18.0756,484,1.5613
18.0798,505,1.6290
18.0840,511,1.6484
18.0882,493,1.5903
18.0925,473,1.5258
18.0967,486,1.5677
18.1010,504,1.6258
18.1052,499,1.6097
18.1099,471,1.5194
18.1142,464,1.4968
18.1184,480,1.5484
18.1226,499,1.6097
18.1268,485,1.5645
18.1310,461,1.4871
18.1353,468,1.5097
18.1396,494,1.5935
18.1438,511,1.6484
18.1481,488,1.5742
18.1523,462,1.4903
18.1566,475,1.5323
18.1608,498,1.6065
18.1650,497,1.6032
18.1693,477,1.5387
18.1735,466,1.5032
18.1778,481,1.5516
18.1820,500,1.6129
18.1863,487,1.5710
18.1906,466,1.5032
18.1949,467,1.5065
18.1991,486,1.5677
18.2033,501,1.6161
18.2076,485,1.5645
18.2119,463,1.4935
18.2162,478,1.5419
18.2204,502,1.6194
18.2247,502,1.6194
18.2289,482,1.5548
18.2337,472,1.5226
18.2380,494,1.5935
18.2422,516,1.6645
18.2464,498,1.6065
18.2507,472,1.5226
18.2549,477,1.5387
18.2592,502,1.6194
18.2634,515,1.6613
18.2677,499,1.6097
18.2719,477,1.5387
18.2762,489,1.5774
18.2804,508,1.6387
18.2846,509,1.6419
18.2888,495,1.5968
18.2931,487,1.5710
18.2973,514,1.6581
18.3015,540,1.7419
18.3057,536,1.7290
18.3100,519,1.6742
18.3143,516,1.6645
18.3186,543,1.7516
18.3228,570,1.8387
18.3270,557,1.7968
18.3317,522,1.6839
18.3360,524,1.6903
18.3403,539,1.7387
18.3445,539,1.7387
18.3487,515,1.6613
18.3529,492,1.5871
18.3574,506,1.6323
18.3617,525,1.6935
18.3660,508,1.6387
18.3703,482,1.5548
18.3746,485,1.5645
18.3789,508,1.6387
18.3836,518,1.6710
18.3879,499,1.6097
18.3921,476,1.5355
18.3964,485,1.5645
18.4008,501,1.6161
18.4051,489,1.5774
18.4093,460,1.4839
18.4136,449,1.4484
18.4178,500,1.6129
18.4220,583,1.8806
18.4262,652,2.1032
18.4304,732,2.3613
18.4347,866,2.7935
18.4390,997,3.2161
18.4433,1000,3.2258
18.4476,1002,3.2323
18.4520,1000,3.2258
18.4563,983,3.1710
18.4606,845,2.7258
18.4650,678,2.1871
18.4694,534,1.7226
18.4738,458,1.4774
18.4782,464,1.4968
18.4825,483,1.5581
18.4868,462,1.4903
18.4911,434,1.4000
18.4955,438,1.4129
18.4998,463,1.4935
18.5041,473,1.5258
18.5087,449,1.4484
18.5130,429,1.3839
18.5173,446,1.4387
18.5216,471,1.5194
18.5259,459,1.4806
18.5302,436,1.4065
18.5347,435,1.4032
18.5390,457,1.4742
18.5433,480,1.5484
18.5475,470,1.5161
18.5517,452,1.4581
18.5559,463,1.4935
18.5602,484,1.5613
18.5644,495,1.5968
18.5687,479,1.5452
18.5729,457,1.4742
18.5772,474,1.5290
18.5814,503,1.6226
18.5856,503,1.6226
18.5899,487,1.5710
18.5941,482,1.5548
18.5983,502,1.6194
18.6026,522,1.6839
18.6068,509,1.6419
18.6111,491,1.5839
18.6153,502,1.6194
18.6196,529,1.7065
18.6239,543,1.7516
18.6281,532,1.7161
18.6323,519,1.6742
18.6366,539,1.7387
18.6409,564,1.8194
18.6451,571,1.8419
18.6494,557,1.7968
18.6536,548,1.7677
18.6578,568,1.8323
18.6620,597,1.9258
18.6663,597,1.9258
18.6707,577,1.8613
18.6751,580,1.8710
18.6795,606,1.9548
18.6838,621,2.0032
18.6881,600,1.9355
18.6924,576,1.8581
18.6967,587,1.8935
18.7010,608,1.9613
18.7053,607,1.9581
18.7099,579,1.8677
18.7142,564,1.8194
18.7184,572,1.8452
18.7226,583,1.8806
18.7269,557,1.7968
18.7311,522,1.6839
18.7355,516,1.6645
18.7398,529,1.7065
18.7441,529,1.7065
18.7483,494,1.5935
18.7526,462,1.4903
18.7568,469,1.5129
18.7610,489,1.5774
18.7653,487,1.5710
18.7697,464,1.4968
18.7740,451,1.4548
18.7784,472,1.5226
18.7828,494,1.5935
18.7871,479,1.5452
18.7914,458,1.4774
18.7957,466,1.5032
18.8000,491,1.5839
18.8043,504,1.6258
18.8086,488,1.5742
18.8129,465,1.5000
18.8172,478,1.5419
18.8216,505,1.6290
18.8258,505,1.6290
18.8301,486,1.5677
18.8343,477,1.5387
18.8386,495,1.5968
18.8429,516,1.6645
18.8471,504,1.6258
18.8514,485,1.5645
18.8555,494,1.5935
18.8597,516,1.6645
18.8640,519,1.6742
18.8682,496,1.6000
18.8725,476,1.5355
18.8767,493,1.5903
18.8809,516,1.6645
18.8852,520,1.6774
18.8895,498,1.6065
18.8937,479,1.5452
18.8981,496,1.6000
18.9024,512,1.6516
18.9067,495,1.5968
18.9115,473,1.5258
18.9158,483,1.5581
18.9200,505,1.6290
18.9245,513,1.6548
18.9288,495,1.5968
18.9331,480,1.5484
18.9374,497,1.6032
18.9417,519,1.6742
18.9460,512,1.6516
18.9503,489,1.5774
18.9546,483,1.5581
18.9589,502,1.6194
18.9632,523,1.6871
18.9676,509,1.6419
18.9719,486,1.5677
18.9762,498,1.6065
18.9805,524,1.6903
18.9848,531,1.7129
18.9891,509,1.6419
18.9935,494,1.5935
18.9979,512,1.6516
19.0022,532,1.7161
19.0064,523,1.6871
19.0107,503,1.6226
19.0150,503,1.6226
19.0193,530,1.7097
19.0236,549,1.7710
19.0284,526,1.6968
19.0327,508,1.6387
19.0370,524,1.6903
19.0413,547,1.7645
19.0456,544,1.7548
19.0499,526,1.6968
19.0542,517,1.6677
19.0585,538,1.7355
19.0628,565,1.8226
19.0670,554,1.7871
19.0713,531,1.7129
19.0756,532,1.7161
19.0799,557,1.7968
19.0842,573,1.8484
19.0884,558,1.8000
19.0928,533,1.7194
19.0971,547,1.7645
19.1015,573,1.8484
19.1058,574,1.8516
19.1102,552,1.7806
19.1145,542,1.7484
19.1188,564,1.8194
19.1230,587,1.8935
19.1272,574,1.8516
19.1315,559,1.8032
19.1357,565,1.8226
19.1400,586,1.8903
19.1443,595,1.9194
19.1485,572,1.8452
19.1527,549,1.7710
19.1570,571,1.8419
19.1612,606,1.9548
19.1655,615,1.9839
19.1697,595,1.9194
19.1740,575,1.8548
19.1782,593,1.9129
19.1825,616,1.9871
19.1867,614,1.9806
19.1910,591,1.9065
19.1954,589,1.9000
19.1997,605,1.9516
19.2039,618,1.9935
19.2082,597,1.9258
19.2125,574,1.8516
19.2169,584,1.8839
19.2212,609,1.9645
19.2255,611,1.9710
19.2299,592,1.9097
19.2342,582,1.8774
19.2385,605,1.9516
19.2429,623,2.0097
19.2472,603,1.9452
19.2515,574,1.8516
19.2559,572,1.8452
19.2616,592,1.9097
19.2668,585,1.8871
19.2711,583,1.8806
19.2754,636,2.0516
19.2797,742,2.3935
19.2840,859,2.7710
19.2883,967,3.1194
19.2925,1001,3.2290
19.2968,1002,3.2323
19.3012,1003,3.2355
19.3055,1003,3.2355
19.3097,1000,3.2258
19.3139,993,3.2032
19.3181,890,2.8710
19.3224,746,2.4065
19.3266,627,2.0226
19.3308,563,1.8161
19.3353,549,1.7710
19.3395,569,1.8355
19.3438,591,1.9065
19.3481,574,1.8516
19.3523,547,1.7645
19.3565,553,1.7839
19.3608,573,1.8484
19.3651,579,1.8677
19.3694,560,1.8065
19.3738,542,1.7484
19.3782,558,1.8000
19.3826,584,1.8839
19.3869,576,1.8581
19.3913,556,1.7935
19.3957,559,1.8032
19.4002,581,1.8742
19.4047,592,1.9097
19.4091,574,1.8516
19.4136,551,1.7774
19.4181,570,1.8387
19.4225,592,1.9097
19.4270,585,1.8871
19.4314,558,1.8000
19.4359,558,1.8000
19.4403,583,1.8806
19.4448,599,1.9323
19.4493,588,1.8968
19.4537,572,1.8452
19.4589,590,1.9032
19.4633,607,1.9581
19.4677,588,1.8968
19.4727,567,1.8290
19.4771,581,1.8742
19.4815,612,1.9742
19.4859,625,2.0161
19.4904,606,1.9548
19.4948,599,1.9323
19.4991,621,2.0032
19.5042,646,2.0839
19.5086,635,2.0484
19.5130,616,1.9871
19.5174,633,2.0419
19.5217,664,2.1419
19.5261,669,2.1581
19.5305,645,2.0806
19.5349,629,2.0290
19.5392,649,2.0935
19.5436,669,2.1581
19.5481,659,2.1258
19.5525,638,2.0581
19.5569,641,2.0677
19.5615,652,2.1032
19.5658,641,2.0677
19.5702,607,1.9581
19.5746,586,1.8903
19.5789,596,1.9226
19.5833,607,1.9581
19.5877,579,1.8677
19.5921,541,1.7452
19.5964,535,1.7258
19.6008,543,1.7516
19.6052,539,1.7387
19.6096,505,1.6290
19.6140,480,1.5484
19.6184,498,1.6065
19.6231,520,1.6774
19.6275,504,1.6258
19.6319,474,1.5290
19.6363,474,1.5290
19.6406,493,1.5903
19.6450,500,1.6129
19.6494,477,1.5387
19.6538,459,1.4806
19.6582,479,1.5452
19.6626,501,1.6161
19.6670,487,1.5710
19.6714,467,1.5065
19.6758,465,1.5000
19.6802,486,1.5677
19.6848,499,1.6097
19.6892,477,1.5387
19.6936,456,1.4710
19.6981,469,1.5129
19.7024,492,1.5871
19.7069,483,1.5581
19.7112,456,1.4710
19.7156,449,1.4484
19.7200,467,1.5065
19.7249,483,1.5581
19.7294,462,1.4903
19.7338,438,1.4129
19.7382,448,1.4452
19.7426,469,1.5129
19.7470,457,1.4742
19.7514,427,1.3774
19.7559,421,1.3581
19.7603,444,1.4323
19.7647,458,1.4774
19.7691,434,1.4000
19.7735,406,1.3097
19.7780,419,1.3516
19.7824,440,1.4194
19.7868,431,1.3903
19.7919,402,1.2968
19.7963,401,1.2935
19.8007,418,1.3484
19.8051,426,1.3742
19.8094,405,1.3065
19.8139,385,1.2419
19.8183,405,1.3065
19.8227,427,1.3774
19.8270,411,1.3258
19.8315,383,1.2355
19.8359,382,1.2323
19.8407,406,1.3097
19.8450,414,1.3355
19.8494,388,1.2516
19.8537,367,1.1839
19.8582,384,1.2387
19.8626,404,1.3032
19.8675,389,1.2548
19.8720,363,1.1710
19.8764,366,1.1806
19.8808,393,1.2677
19.8852,401,1.2935
19.8895,378,1.2194
19.8946,355,1.1452
19.8990,371,1.1968
19.9034,394,1.2710
19.9078,385,1.2419
19.9122,360,1.1613
19.9166,362,1.1677
19.9210,381,1.2290
19.9254,387,1.2484
19.9298,364,1.1742
19.9342,346,1.1161
19.9386,364,1.1742
19.9430,384,1.2387
19.9474,368,1.1871
19.9522,341,1.1000
19.9566,351,1.1323
19.9610,372,1.2000
19.9654,381,1.2290
19.9697,359,1.1581
19.9741,338,1.0903
19.9785,359,1.1581
19.9829,387,1.2484
19.9873,379,1.2226
19.9917,352,1.1355
19.9961,349,1.1258
20.0005,372,1.2000
20.0049,386,1.2452
20.0093,374,1.2065
20.0141,356,1.1484
20.0184,369,1.1903
20.0229,390,1.2581
20.0281,365,1.1774
20.0355,324,1.0452
20.0399,343,1.1065
20.0443,361,1.1645
20.0487,340,1.0968
20.0531,318,1.0258
20.0575,337,1.0871
20.0620,367,1.1839
20.0664,366,1.1806
20.0708,336,1.0839
20.0752,320,1.0323
20.0796,336,1.0839
20.0840,356,1.1484
20.0883,336,1.0839
20.0927,327,1.0548
20.0971,386,1.2452
20.1015,489,1.5774
20.1058,598,1.9290
20.1102,705,2.2742
20.1145,802,2.5871
20.1189,900,2.9032
20.1233,937,3.0226
20.1276,847,2.7323
20.1320,695,2.2419
20.1364,577,1.8613
20.1408,500,1.6129
20.1452,424,1.3677
20.1495,329,1.0613
20.1539,271,0.8742
20.1586,285,0.9194
20.1630,310,1.0000
20.1673,300,0.9677
20.1717,280,0.9032
20.1765,286,0.9226
20.1808,309,0.9968
20.1852,321,1.0355
20.1896,303,0.9774
20.1939,286,0.9226
20.1983,303,0.9774
20.2026,326,1.0516
20.2070,322,1.0387
20.2114,301,0.9710
20.2157,294,0.9484
20.2202,317,1.0226
20.2245,335,1.0806
20.2289,320,1.0323
20.2332,304,0.9806
20.2376,321,1.0355
20.2419,349,1.1258
20.2468,352,1.1355
20.2511,335,1.0806
20.2555,332,1.0710
20.2598,355,1.1452
20.2642,375,1.2097
20.2685,359,1.1581
20.2729,341,1.1000
20.2772,355,1.1452
20.2817,384,1.2387
20.2860,396,1.2774
20.2904,382,1.2323
20.2947,370,1.1935
20.2991,393,1.2677
20.3034,424,1.3677
20.3078,417,1.3452
20.3121,400,1.2903
20.3165,408,1.3161
20.3209,437,1.4097
20.3252,453,1.4613
20.3296,442,1.4258
20.3340,433,1.3968
20.3384,459,1.4806
20.3432,487,1.5710
20.3476,479,1.5452
20.3519,460,1.4839
20.3563,468,1.5097
20.3606,496,1.6000
20.3650,514,1.6581
20.3694,495,1.5968
20.3737,472,1.5226
20.3781,486,1.5677
20.3824,504,1.6258
20.3866,496,1.6000
20.3910,476,1.5355
20.3952,460,1.4839
20.3995,466,1.5032
20.4038,469,1.5129
20.4081,442,1.4258
20.4124,413,1.3323
20.4167,409,1.3194
20.4209,420,1.3548
20.4252,419,1.3516
20.4294,392,1.2645
20.4337,368,1.1871
20.4379,379,1.2226
20.4421,400,1.2903
20.4464,403,1.3000
20.4506,386,1.2452
20.4549,375,1.2097
20.4591,394,1.2710
20.4633,412,1.3290
20.4675,403,1.3000
20.4718,387,1.2484
20.4760,390,1.2581
20.4804,412,1.3290
20.4847,427,1.3774
20.4890,410,1.3226
20.4934,393,1.2677
20.4977,408,1.3161
20.5020,430,1.3871
20.5063,432,1.3935
20.5113,410,1.3226
20.5156,406,1.3097
20.5199,428,1.3806
20.5242,449,1.4484
20.5285,435,1.4032
20.5329,412,1.3290
20.5372,420,1.3548
20.5415,441,1.4226
20.5458,445,1.4355
20.5502,427,1.3774
20.5545,410,1.3226
20.5588,427,1.3774
20.5631,444,1.4323
20.5673,438,1.4129
20.5716,416,1.3419
20.5758,416,1.3419
20.5801,441,1.4226
20.5844,458,1.4774
20.5889,439,1.4161
20.5932,417,1.3452
20.5974,430,1.3871
20.6016,455,1.4677
20.6058,462,1.4903
20.6100,443,1.4290
20.6143,425,1.3710
20.6185,442,1.4258
20.6228,461,1.4871
20.6271,453,1.4613
20.6315,431,1.3903
20.6359,427,1.3774
20.6402,449,1.4484
20.6445,469,1.5129
20.6488,454,1.4645
20.6530,434,1.4000
20.6574,445,1.4355
20.6618,467,1.5065
20.6661,473,1.5258
20.6706,454,1.4645
20.6750,440,1.4194
20.6793,459,1.4806
20.6836,482,1.5548
20.6878,471,1.5194
20.6921,453,1.4613
20.6964,457,1.4742
20.7006,479,1.5452
20.7048,495,1.5968
20.7090,475,1.5323
20.7132,450,1.4516
20.7175,462,1.4903
20.7217,486,1.5677
20.7259,495,1.5968
20.7301,476,1.5355
20.7344,459,1.4806
20.7387,476,1.5355
20.7429,498,1.6065
20.7472,492,1.5871
20.7515,476,1.5355
20.7558,475,1.5323
20.7601,495,1.5968
20.7645,500,1.6129
20.7716,481,1.5516
20.7759,480,1.5484
20.7802,504,1.6258
20.7845,523,1.6871
20.7889,508,1.6387
20.7932,487,1.5710
20.7975,497,1.6032
20.8018,522,1.6839
20.8061,536,1.7290
20.8104,524,1.6903
20.8146,514,1.6581
20.8189,528,1.7032
20.8232,548,1.7677
20.8274,542,1.7484
20.8316,526,1.6968
20.8359,526,1.6968
20.8402,548,1.7677
20.8444,564,1.8194
20.8486,542,1.7484
20.8529,513,1.6548
20.8571,517,1.6677
20.8614,538,1.7355
20.8656,546,1.7613
20.8698,529,1.7065
20.8741,519,1.6742
20.8784,540,1.7419
20.8827,559,1.8032
20.8870,554,1.7871
20.8913,530,1.7097
20.8956,520,1.6774
20.8999,538,1.7355
20.9042,552,1.7806
20.9085,528,1.7032
20.9128,505,1.6290
20.9171,532,1.7161
20.9214,603,1.9452
20.9257,692,2.2323
20.9300,780,2.5161
20.9342,898,2.8968
20.9385,1001,3.2290
20.9429,1001,3.2290
20.9472,1003,3.2355
20.9515,1001,3.2290
20.9557,999,3.2226
20.9599,953,3.0742
20.9642,804,2.5935
20.9684,646,2.0839
20.9726,534,1.7226
20.9773,507,1.6355
20.9816,528,1.7032
20.9859,537,1.7323
20.9901,515,1.6613
20.9943,495,1.5968
20.9986,512,1.6516
21.0029,534,1.7226
21.0071,531,1.7129
21.0113,507,1.6355
21.0156,496,1.6000
21.0199,519,1.6742
21.0242,539,1.7387
21.0285,526,1.6968
21.0329,508,1.6387
21.0372,516,1.6645
21.0415,541,1.7452
21.0461,550,1.7742
21.0504,537,1.7323
21.0546,524,1.6903
21.0592,544,1.7548
21.0635,559,1.8032
21.0678,550,1.7742
21.0722,535,1.7258
21.0765,544,1.7548
21.0807,572,1.8452
21.0851,588,1.8968
21.0894,570,1.8387
21.0937,549,1.7710
21.0979,566,1.8258
21.1021,591,1.9065
21.1064,601,1.9387
21.1106,591,1.9065
21.1148,581,1.8742
21.1190,601,1.9387
21.1232,620,2.0000
21.1275,618,1.9935
21.1322,601,1.9387
21.1365,604,1.9484
21.1409,633,2.0419
21.1452,656,2.1161
21.1494,643,2.0742
21.1538,628,2.0258
21.1581,644,2.0774
21.1625,671,2.1645
21.1668,681,2.1968
21.1711,672,2.1677
21.1755,666,2.1484
21.1798,681,2.1968
21.1841,702,2.2645
21.1884,692,2.2323
21.1928,670,2.1613
21.1971,676,2.1806
21.2014,701,2.2613
21.2057,713,2.3000
21.2101,685,2.2097
21.2144,662,2.1355
21.2187,672,2.1677
21.2230,680,2.1935
21.2274,659,2.1258
21.2317,622,2.0065
21.2360,598,1.9290
21.2404,606,1.9548
21.2447,614,1.9806
21.2490,590,1.9032
21.2534,563,1.8161
21.2577,569,1.8355
21.2620,585,1.8871
21.2663,585,1.8871
21.2707,557,1.7968
21.2750,537,1.7323
21.2793,554,1.7871
21.2841,580,1.8710
21.2884,568,1.8323
21.2928,550,1.7742
21.2971,555,1.7903
21.3014,579,1.8677
21.3057,591,1.9065
21.3101,570,1.8387
21.3144,554,1.7871
21.3188,569,1.8355
21.3231,590,1.9032
21.3273,586,1.8903
21.3316,568,1.8323
21.3359,560,1.8065
21.3402,581,1.8742
21.3445,601,1.9387
21.3488,583,1.8806
21.3531,565,1.8226
21.3574,574,1.8516
21.3617,596,1.9226
21.3659,601,1.9387
21.3702,580,1.8710
21.3744,560,1.8065
21.3787,579,1.8677
21.3828,599,1.9323
21.3871,595,1.9194
21.3914,572,1.8452
21.3956,559,1.8032
21.3998,580,1.8710
21.4040,605,1.9516
21.4082,595,1.9194
21.4125,569,1.8355
21.4167,565,1.8226
21.4209,581,1.8742
21.4252,599,1.9323
21.4295,583,1.8806
21.4339,562,1.8129
21.4387,573,1.8484
21.4430,590,1.9032
21.4479,587,1.8935
21.4523,568,1.8323
21.4566,564,1.8194
21.4608,583,1.8806
21.4651,595,1.9194
21.4694,573,1.8484
21.4736,552,1.7806
21.4779,561,1.8097
21.4822,579,1.8677
21.4865,586,1.8903
21.4908,569,1.8355
21.4951,555,1.7903
21.4994,568,1.8323
21.5036,588,1.8968
21.5078,578,1.8645
21.5121,557,1.7968
21.5164,552,1.7806
21.5206,575,1.8548
21.5248,596,1.9226
21.5296,583,1.8806
21.5339,563,1.8161
21.5381,572,1.8452
21.5424,590,1.9032
21.5466,597,1.9258
21.5508,577,1.8613
21.5551,558,1.8000
21.5594,575,1.8548
21.5637,600,1.9355
21.5680,595,1.9194
21.5724,575,1.8548
21.5767,568,1.8323
21.5810,582,1.8774
21.5859,597,1.9258
21.5910,576,1.8581
21.5954,563,1.8161
21.5997,582,1.8774
21.6041,604,1.9484
21.6084,594,1.9161
21.6126,570,1.8387
21.6169,568,1.8323
21.6212,590,1.9032
21.6254,612,1.9742
21.6297,601,1.9387
21.6340,590,1.9032
21.6383,605,1.9516
21.6427,624,2.0129
21.6469,620,2.0000
21.6512,599,1.9323
21.6555,593,1.9129
21.6598,617,1.9903
21.6640,641,2.0677
21.6684,629,2.0290
21.6727,596,1.9226
21.6770,590,1.9032
21.6813,599,1.9323
21.6855,616,1.9871
21.6897,597,1.9258
21.6940,574,1.8516
21.6983,582,1.8774
21.7025,606,1.9548
21.7067,614,1.9806
21.7110,594,1.9161
21.7153,576,1.8581
21.7196,596,1.9226
21.7240,618,1.9935
21.7283,604,1.9484
21.7326,573,1.8484
21.7372,563,1.8161
21.7416,587,1.8935
21.7459,640,2.0645
21.7501,696,2.2452
21.7545,775,2.5000
21.7588,909,2.9323
21.7631,1000,3.2258
21.7673,1002,3.2323
21.7716,1003,3.2355
21.7760,1001,3.2290
21.7803,1001,3.2290
21.7846,999,3.2226
21.7889,938,3.0258
21.7932,744,2.4000
21.7975,606,1.9548
21.8018,569,1.8355
21.8060,568,1.8323
21.8102,549,1.7710
21.8144,531,1.7129
21.8186,545,1.7581
21.8229,567,1.8290
21.8271,571,1.8419
21.8313,553,1.7839
21.8355,537,1.7323
21.8397,555,1.7903
21.8440,575,1.8548
21.8483,565,1.8226
21.8525,541,1.7452
21.8568,535,1.7258
21.8611,553,1.7839
21.8655,575,1.8548
21.8698,562,1.8129
21.8741,544,1.7548
21.8784,562,1.8129
21.8827,586,1.8903
21.8869,591,1.9065
21.8912,572,1.8452
21.8956,558,1.8000
21.8999,583,1.8806
21.9043,608,1.9613
21.9086,599,1.9323
21.9129,579,1.8677
21.9171,584,1.8839
21.9214,613,1.9774
21.9257,633,2.0419
21.9299,612,1.9742
21.9341,594,1.9161
21.9387,604,1.9484
21.9430,633,2.0419
21.9476,638,2.0581
21.9519,622,2.0065
21.9562,615,1.9839
21.9604,637,2.0548
21.9648,666,2.1484
21.9716,655,2.1129
21.9759,647,2.0871
21.9801,669,2.1581
21.9844,694,2.2387
21.9890,688,2.2194
21.9933,674,2.1742
21.9977,681,2.1968
22.0020,704,2.2710
22.0063,724,2.3355
22.0106,710,2.2903
22.0148,695,2.2419
22.0191,707,2.2806
22.0234,727,2.3452
22.0278,725,2.3387
22.0321,699,2.2548
22.0363,679,2.1903
22.0410,699,2.2548
22.0453,714,2.3032
22.0500,680,2.1935
22.0543,645,2.0806
22.0585,643,2.0742
22.0627,654,2.1097
22.0670,649,2.0935
22.0712,620,2.0000
22.0754,588,1.8968
22.0797,600,1.9355
22.0839,614,1.9806
22.0882,603,1.9452
22.0925,581,1.8742
22.0967,575,1.8548
22.1010,592,1.9097
22.1052,610,1.9677
22.1095,594,1.9161
22.1137,574,1.8516
22.1181,579,1.8677
22.1230,603,1.9452
22.1273,609,1.9645
22.1317,591,1.9065
22.1359,578,1.8645
22.1402,598,1.9290
22.1445,621,2.0032
22.1489,611,1.9710
22.1532,592,1.9097
22.1575,592,1.9097
22.1618,618,1.9935
22.1660,637,2.0548
22.1703,623,2.0097
22.1746,600,1.9355
22.1789,607,1.9581
22.1831,625,2.0161
22.1873,630,2.0323
22.1916,617,1.9903
22.1959,600,1.9355
22.2001,613,1.9774
22.2049,637,2.0548
22.2092,623,2.0097
22.2134,599,1.9323
22.2176,596,1.9226
22.2218,613,1.9774
22.2261,631,2.0355
22.2303,612,1.9742
22.2346,590,1.9032
22.2388,600,1.9355
22.2431,620,2.0000
22.2474,623,2.0097
22.2518,601,1.9387
22.2561,582,1.8774
22.2604,600,1.9355
22.2648,622,2.0065
22.2691,609,1.9645
22.2735,584,1.8839
22.2778,585,1.8871
22.2821,612,1.9742
22.2868,628,2.0258
22.2912,603,1.9452
22.2955,575,1.8548
22.2998,593,1.9129
22.3040,615,1.9839
22.3084,610,1.9677
22.3127,591,1.9065
22.3169,583,1.8806
22.3212,602,1.9419
22.3255,620,2.0000
22.3297,602,1.9419
22.3340,578,1.8645
22.3382,579,1.8677
22.3424,600,1.9355
22.3467,615,1.9839
22.3510,598,1.9290
22.3553,574,1.8516
22.3595,585,1.8871
22.3637,604,1.9484
22.3685,601,1.9387
22.3728,583,1.8806
22.3770,577,1.8613
22.3812,594,1.9161
22.3855,612,1.9742
22.3900,592,1.9097
22.3944,570,1.8387
22.3987,577,1.8613
22.4031,599,1.9323
22.4074,604,1.9484
22.4117,583,1.8806
22.4160,565,1.8226
22.4204,582,1.8774
22.4247,607,1.9581
22.4290,597,1.9258
22.4333,571,1.8419
22.4376,561,1.8097
22.4423,582,1.8774
22.4466,597,1.9258
22.4513,573,1.8484
22.4556,549,1.7710
22.4598,560,1.8065
22.4641,591,1.9065
22.4684,597,1.9258
22.4727,574,1.8516
22.4769,560,1.8065
22.4811,569,1.8355
22.4853,589,1.9000
22.4895,579,1.8677
22.4938,566,1.8258
22.4981,566,1.8258
22.5023,580,1.8710
22.5065,587,1.8935
22.5108,560,1.8065
22.5150,529,1.7065
22.5193,530,1.7097
22.5235,550,1.7742
22.5277,551,1.7774
22.5322,527,1.7000
22.5366,513,1.6548
22.5409,531,1.7129
22.5452,552,1.7806
22.5496,538,1.7355
22.5539,511,1.6484
22.5582,508,1.6387
22.5629,523,1.6871
22.5677,517,1.6677
22.5721,482,1.5548
22.5764,464,1.4968
22.5807,511,1.6484
22.5849,595,1.9194
22.5892,674,2.1742
22.5936,765,2.4677
22.5981,895,2.8871
22.6024,997,3.2161
22.6067,1001,3.2290
22.6109,1000,3.2258
22.6152,991,3.1968
22.6195,895,2.8871
22.6237,752,2.4258
22.6281,616,1.9871
22.6325,493,1.5903
22.6368,414,1.3355
22.6411,410,1.3226
22.6455,432,1.3935
22.6498,418,1.3484
22.6541,399,1.2871
22.6585,408,1.3161
22.6628,429,1.3839
22.6672,435,1.4032
22.6715,407,1.3129
22.6758,382,1.2323
22.6801,398,1.2839
22.6845,416,1.3419
22.6888,410,1.3226
22.6931,387,1.2484
22.6974,381,1.2290
22.7018,405,1.3065
22.7061,425,1.3710
22.7104,409,1.3194
22.7147,383,1.2355
22.7191,387,1.2484
22.7234,409,1.3194
22.7278,411,1.3258
22.7321,387,1.2484
22.7368,374,1.2065
22.7411,398,1.2839
22.7454,419,1.3516
22.7498,402,1.2968
22.7541,381,1.2290
22.7584,386,1.2452
22.7628,406,1.3097
22.7671,413,1.3323
22.7714,394,1.2710
22.7757,376,1.2129
22.7800,395,1.2742
22.7844,422,1.3613
22.7887,419,1.3516
22.7930,397,1.2806
22.7973,390,1.2581
22.8017,412,1.3290
22.8060,437,1.4097
22.8104,426,1.3742
22.8147,402,1.2968
22.8190,412,1.3290
22.8233,438,1.4129
22.8277,446,1.4387
22.8320,426,1.3742
22.8363,410,1.3226
22.8406,429,1.3839
22.8453,455,1.4677
22.8497,440,1.4194
22.8540,417,1.3452
22.8583,416,1.3419
22.8632,435,1.4032
22.8682,429,1.3839
22.8725,396,1.2774
22.8768,370,1.1935
22.8812,376,1.2129
22.8855,383,1.2355
22.8899,352,1.1355
22.8942,315,1.0161
22.8985,303,0.9774
22.9029,311,1.0032
22.9072,310,1.0000
22.9115,279,0.9000
22.9158,252,0.8129
22.9202,258,0.8323
22.9245,274,0.8839
22.9288,263,0.8484
22.9332,238,0.7677
22.9375,230,0.7419
22.9418,247,0.7968
22.9462,260,0.8387
22.9505,241,0.7774
22.9548,220,0.7097
22.9592,230,0.7419
22.9635,257,0.8290
22.9679,265,0.8548
22.9722,245,0.7903
22.9765,229,0.7387
22.9809,247,0.7968
22.9852,272,0.8774
22.9896,266,0.8581
22.9939,238,0.7677
22.9982,232,0.7484
23.0029,256,0.8258
23.0073,268,0.8645
23.0116,248,0.8000
23.0159,224,0.7226
23.0203,236,0.7613
23.0246,261,0.8419
23.0289,257,0.8290
23.0332,228,0.7355
23.0376,220,0.7097
23.0419,239,0.7710
23.0462,258,0.8323
23.0506,238,0.7677
23.0549,213,0.6871
23.0592,222,0.7161
23.0636,243,0.7839
23.0685,247,0.7968
23.0729,224,0.7226
23.0772,214,0.6903
23.0815,234,0.7548
23.0858,249,0.8032
23.0901,225,0.7258
23.0944,200,0.6452
23.0987,207,0.6677
23.1031,228,0.7355
23.1074,237,0.7645
23.1117,219,0.7065
23.1160,204,0.6581
23.1203,219,0.7065
23.1246,240,0.7742
23.1290,237,0.7645
23.1333,212,0.6839
23.1376,203,0.6548
23.1420,227,0.7323
23.1463,248,0.8000
23.1506,228,0.7355
23.1550,207,0.6677
23.1593,218,0.7032
23.1636,243,0.7839
23.1680,249,0.8032
23.1723,230,0.7419
23.1767,215,0.6935
23.1810,234,0.7548
23.1853,261,0.8419
23.1897,256,0.8258
23.1940,237,0.7645
23.1983,236,0.7613
23.2027,254,0.8194
23.2076,266,0.8581
23.2119,247,0.7968
23.2163,227,0.7323
23.2206,245,0.7903
23.2249,275,0.8871
23.2292,276,0.8903
23.2336,253,0.8161
23.2379,247,0.7968
23.2422,265,0.8548
23.2466,287,0.9258
23.2509,273,0.8806
23.2552,254,0.8194
23.2595,268,0.8645
23.2639,292,0.9419
23.2682,298,0.9613
23.2725,281,0.9065
23.2768,268,0.8645
23.2812,287,0.9258
23.2855,309,0.9968
23.2898,300,0.9677
23.2941,287,0.9258
23.2984,303,0.9774
23.3033,341,1.1000
23.3076,350,1.1290
23.3120,322,1.0387
23.3163,297,0.9581
23.3206,319,1.0290
23.3250,353,1.1387
23.3293,352,1.1355
23.3336,329,1.0613
23.3380,320,1.0323
23.3424,333,1.0742
23.3467,348,1.1226
23.3510,333,1.0742
23.3553,316,1.0194
23.3597,331,1.0677
23.3640,358,1.1548
23.3683,362,1.1677
23.3726,344,1.1097
23.3770,334,1.0774
23.3813,357,1.1516
23.3857,377,1.2161
23.3900,362,1.1677
23.3944,334,1.0774
23.3987,331,1.0677
23.4031,351,1.1323
23.4074,377,1.2161
23.4122,414,1.3355
23.4166,483,1.5581
23.4209,605,1.9516
23.4252,758,2.4452
23.4295,873,2.8161
23.4339,946,3.0516
23.4382,977,3.1516
23.4426,945,3.0484
23.4469,828,2.6710
23.4512,675,2.1774
23.4556,542,1.7484
23.4599,464,1.4968
23.4642,412,1.3290
23.4685,377,1.2161
23.4729,355,1.1452
23.4779,350,1.1290
23.4822,373,1.2032
23.4865,395,1.2742
23.4908,381,1.2290
23.4950,364,1.1742
23.4992,377,1.2161
23.5035,402,1.2968
23.5077,418,1.3484
23.5120,401,1.2935
23.5162,381,1.2290
23.5204,404,1.3032
23.5246,432,1.3935
23.5288,434,1.4000
23.5330,412,1.3290
23.5373,400,1.2903
23.5416,426,1.3742
23.5459,454,1.4645
23.5504,445,1.4355
23.5561,426,1.3742
23.5605,449,1.4484
23.5649,477,1.5387
23.5693,474,1.5290
23.5738,459,1.4806
23.5783,462,1.4903
23.5827,488,1.5742
23.5871,507,1.6355
23.5916,492,1.5871
23.5960,478,1.5419
23.6017,508,1.6387
23.6061,535,1.7258
23.6107,525,1.6935
23.6151,508,1.6387
23.6196,524,1.6903
23.6241,555,1.7903
23.6285,565,1.8226
23.6329,556,1.7935
23.6373,555,1.7903
23.6417,582,1.8774
23.6461,609,1.9645
23.6505,602,1.9419
23.6549,593,1.9129
23.6593,608,1.9613
23.6637,633,2.0419
23.6681,643,2.0742
23.6725,628,2.0258
23.6769,616,1.9871
23.6813,640,2.0645
23.6858,664,2.1419
23.6901,650,2.0968
23.6945,628,2.0258
23.6989,628,2.0258
23.7032,642,2.0710
23.7076,643,2.0742
23.7120,615,1.9839
23.7164,588,1.8968
23.7208,597,1.9258
23.7251,605,1.9516
23.7295,583,1.8806
23.7376,530,1.7097
23.7420,548,1.7677
23.7464,567,1.8290
23.7508,543,1.7516
23.7552,513,1.6548
23.7596,519,1.6742
23.7639,546,1.7613
23.7684,556,1.7935
23.7729,541,1.7452
23.7773,526,1.6968
23.7822,550,1.7742
23.7866,572,1.8452
23.7910,557,1.7968
23.7953,538,1.7355
23.7997,553,1.7839
23.8041,580,1.8710
23.8084,586,1.8903
23.8128,568,1.8323
23.8172,559,1.8032
23.8216,582,1.8774
23.8260,605,1.9516
23.8304,596,1.9226
23.8348,580,1.8710
23.8391,585,1.8871
23.8439,607,1.9581
23.8483,615,1.9839
23.8527,596,1.9226
23.8576,582,1.8774
23.8619,605,1.9516
23.8663,626,2.0194
23.8707,608,1.9613
23.8751,587,1.8935
23.8795,592,1.9097
23.8839,615,1.9839
23.8883,623,2.0097
23.8927,603,1.9452
23.8971,587,1.8935
23.9015,606,1.9548
23.9058,622,2.0065
23.9102,608,1.9613
23.9146,592,1.9097
23.9190,597,1.9258
23.9234,616,1.9871
23.9277,624,2.0129
23.9321,601,1.9387
23.9366,581,1.8742
23.9410,599,1.9323
23.9454,622,2.0065
23.9498,620,2.0000
23.9548,595,1.9194
23.9592,596,1.9226
23.9637,620,2.0000
23.9681,632,2.0387
23.9725,612,1.9742
23.9769,595,1.9194
23.9814,613,1.9774
23.9858,633,2.0419
23.9902,626,2.0194
23.9946,605,1.9516
23.9990,605,1.9516
24.0034,628,2.0258
24.0080,640,2.0645
24.0124,618,1.9935
24.0168,604,1.9484
24.0212,621,2.0032
24.0256,641,2.0677
24.0300,631,2.0355
24.0344,610,1.9677
24.0388,609,1.9645
24.0432,634,2.0452
24.0476,653,2.1065
24.0520,632,2.0387
24.0564,609,1.9645
24.0608,624,2.0129
24.0652,650,2.0968
24.0698,646,2.0839
24.0741,626,2.0194
24.0785,615,1.9839
24.0829,634,2.0452
24.0873,654,2.1097
24.0917,640,2.0645
24.0961,621,2.0032
24.1005,634,2.0452
24.1049,655,2.1129
24.1093,651,2.1000
24.1137,627,2.0226
24.1182,619,1.9968
24.1226,641,2.0677
24.1270,668,2.1548
24.1314,659,2.1258
24.1358,641,2.0677
24.1402,652,2.1032
24.1446,672,2.1677
24.1490,675,2.1774
24.1534,661,2.1323
24.1577,661,2.1323
24.1621,684,2.2065
24.1666,696,2.2452
24.1710,672,2.1677
24.1754,638,2.0581
24.1798,640,2.0645
24.1842,663,2.1387
24.1886,668,2.1548
24.1931,649,2.0935
24.1975,632,2.0387
24.2019,650,2.0968
24.2063,675,2.1774
24.2112,665,2.1452
24.2157,642,2.0710
24.2201,646,2.0839
24.2245,661,2.1323
24.2289,654,2.1097
24.2333,626,2.0194
24.2377,610,1.9677
24.2421,646,2.0839
24.2465,717,2.3129
24.2509,786,2.5355
24.2553,869,2.8032
24.2596,993,3.2032
24.2640,1002,3.2323
24.2684,1004,3.2387
24.2728,1004,3.2387
24.2772,1002,3.2323
24.2817,1001,3.2290
24.2861,999,3.2226
24.2905,972,3.1355
24.2949,790,2.5484
24.2993,650,2.0968
24.3037,616,1.9871
24.3081,626,2.0194
24.3130,612,1.9742
24.3174,599,1.9323
24.3217,614,1.9806
24.3261,635,2.0484
24.3304,626,2.0194
24.3348,607,1.9581
24.3392,611,1.9710
24.3436,632,2.0387
24.3479,646,2.0839
24.3523,629,2.0290
24.3566,609,1.9645
24.3610,624,2.0129
24.3654,644,2.0774
24.3728,630,2.0323
24.3771,617,1.9903
24.3815,640,2.0645
24.3859,670,2.1613
24.3903,662,2.1355
24.3946,641,2.0677
24.3990,641,2.0677
24.4033,666,2.1484
24.4077,684,2.2065
24.4120,669,2.1581
24.4164,651,2.1000
24.4208,664,2.1419
24.4251,690,2.2258
24.4295,695,2.2419
24.4339,677,2.1839
24.4382,667,2.1516
24.4426,690,2.2258
24.4469,722,2.3290
24.4513,716,2.3097
24.4557,697,2.2484
24.4602,706,2.2774
24.4645,736,2.3742
24.4689,754,2.4323
24.4732,742,2.3935
24.4776,730,2.3548
24.4819,752,2.4258
24.4862,782,2.5226
24.4906,778,2.5097
24.4949,760,2.4516
24.4993,760,2.4516
24.5037,787,2.5387
24.5081,803,2.5903
24.5125,782,2.5226
24.5168,760,2.4516
24.5215,777,2.5065
24.5258,799,2.5774
24.5302,788,2.5419
24.5345,763,2.4613
24.5389,749,2.4161
24.5432,758,2.4452
24.5476,765,2.4677
24.5519,737,2.3774
24.5563,701,2.2613
24.5606,699,2.2548
24.5650,713,2.3000
24.5694,703,2.2677
24.5737,665,2.1452
24.5781,639,2.0613
24.5830,651,2.1000
24.5873,669,2.1581
24.5916,650,2.0968
24.5960,626,2.0194
24.6003,630,2.0323
24.6047,648,2.0903
24.6091,653,2.1065
24.6134,636,2.0516
24.6178,621,2.0032
24.6222,641,2.0677
24.6266,656,2.1161
24.6309,641,2.0677
24.6353,623,2.0097
24.6396,626,2.0194
24.6446,660,2.1290
24.6490,665,2.1452
24.6535,641,2.0677
24.6580,627,2.0226
24.6638,656,2.1161
24.6695,664,2.1419
24.6740,642,2.0710
24.6784,629,2.0290
24.6829,646,2.0839
24.6873,668,2.1548
24.6918,655,2.1129
24.6962,637,2.0548
24.7007,645,2.0806
24.7051,660,2.1290
24.7096,655,2.1129
24.7141,629,2.0290
24.7186,615,1.9839
24.7231,633,2.0419
24.7275,654,2.1097
24.7319,635,2.0484
24.7363,607,1.9581
24.7406,606,1.9548
24.7450,626,2.0194
24.7494,630,2.0323
24.7539,608,1.9613
24.7583,595,1.9194
24.7627,608,1.9613
24.7670,625,2.0161
24.7714,601,1.9387
24.7758,576,1.8581
24.7802,581,1.8742
24.7846,606,1.9548
24.7890,615,1.9839
24.7933,591,1.9065
24.7977,570,1.8387
24.8021,585,1.8871
24.8065,603,1.9452
24.8109,590,1.9032
24.8153,564,1.8194
24.8197,563,1.8161
24.8241,584,1.8839
24.8284,594,1.9161
24.8328,572,1.8452
24.8373,548,1.7677
24.8417,562,1.8129
24.8461,585,1.8871
24.8505,579,1.8677
24.8548,549,1.7710
24.8592,536,1.7290
24.8636,556,1.7935
24.8680,574,1.8516
24.8724,551,1.7774
24.8768,526,1.6968
24.8812,541,1.7452
24.8856,565,1.8226
24.8900,563,1.8161
24.8944,536,1.7290
24.8988,517,1.6677
24.9032,536,1.7290
24.9075,557,1.7968
24.9122,532,1.7161
24.9165,503,1.6226
24.9209,508,1.6387
24.9253,528,1.7032
24.9297,532,1.7161
24.9341,509,1.6419
24.9385,493,1.5903
24.9429,508,1.6387
24.9473,530,1.7097
24.9516,519,1.6742
24.9560,490,1.5806
24.9604,489,1.5774
24.9648,504,1.6258
24.9692,506,1.6323
24.9739,482,1.5548
24.9783,468,1.5097
24.9826,491,1.5839
24.9870,517,1.6677
24.9914,500,1.6129
24.9957,469,1.5129
25.0001,468,1.5097
25.0045,492,1.5871
25.0089,504,1.6258
25.0139,477,1.5387
25.0182,452,1.4581
25.0226,463,1.4935
25.0270,475,1.5323
25.0315,454,1.4645
25.0359,425,1.3710
25.0404,428,1.3806
25.0448,449,1.4484
25.0491,459,1.4806
25.0535,442,1.4258
25.0579,419,1.3516
25.0623,432,1.3935
25.0667,451,1.4548
25.0711,433,1.3968
25.0755,399,1.2871
25.0800,384,1.2387
25.0845,395,1.2742
25.0889,403,1.3000
25.0934,404,1.3032
25.0978,446,1.4387
25.1022,555,1.7903
25.1067,688,2.2194
25.1111,810,2.6129
25.1155,907,2.9258
25.1200,986,3.1806
25.1244,994,3.2065
25.1289,919,2.9645
25.1333,733,2.3645
25.1386,545,1.7581
25.1430,450,1.4516
25.1474,388,1.2516
25.1519,333,1.0742
25.1564,298,0.9613
25.1608,306,0.9871
25.1652,331,1.0677
25.1696,338,1.0903
25.1741,312,1.0065
25.1785,297,0.9581
25.1830,315,1.0161
25.1874,337,1.0871
25.1918,324,1.0452
25.1963,296,0.9548
25.2007,296,0.9548
25.2051,318,1.0258
25.2096,326,1.0516
25.2140,305,0.9839
25.2185,287,0.9258
25.2230,309,0.9968
25.2274,334,1.0774
25.2319,326,1.0516
25.2363,303,0.9774
25.2408,306,0.9871
25.2460,335,1.0806
25.2505,337,1.0871
25.2549,317,1.0226
25.2593,309,0.9968
25.2643,327,1.0548
25.2691,340,1.0968
25.2734,324,1.0452
25.2778,306,0.9871
25.2828,329,1.0613
25.2871,357,1.1516
25.2915,351,1.1323
25.2958,331,1.0677
25.3002,336,1.0839
25.3045,366,1.1806
25.3089,389,1.2548
25.3132,374,1.2065
25.3176,357,1.1516
25.3220,379,1.2226
25.3264,410,1.3226
25.3307,416,1.3419
25.3351,397,1.2806
25.3395,393,1.2677
25.3446,421,1.3581
25.3490,440,1.4194
25.3535,426,1.3742
25.3581,410,1.3226
25.3625,435,1.4032
25.3670,461,1.4871
25.3714,450,1.4516
25.3759,423,1.3645
25.3803,419,1.3516
25.3848,436,1.4065
25.3892,441,1.4226
25.3937,412,1.3290
25.3982,386,1.2452
25.4026,395,1.2742
25.4071,405,1.3065
25.4115,380,1.2258
25.4159,343,1.1065
25.4206,329,1.0613
25.4250,341,1.1000
25.4295,345,1.1129
25.4339,318,1.0258
25.4384,296,0.9548
25.4429,317,1.0226
25.4479,335,1.0806
25.4523,316,1.0194
25.4567,292,0.9419
25.4611,302,0.9742
25.4655,322,1.0387
25.4699,328,1.0581
25.4743,312,1.0065
25.4788,302,0.9742
25.4833,326,1.0516
25.4877,348,1.1226
25.4922,332,1.0710
25.4966,311,1.0032
25.5011,325,1.0484
25.5056,355,1.1452
25.5100,359,1.1581
25.5144,338,1.0903
25.5189,326,1.0516
25.5234,352,1.1355
25.5279,374,1.2065
25.5324,357,1.1516
25.5369,333,1.0742
25.5414,343,1.1065
25.5458,367,1.1839
25.5511,364,1.1742
25.5555,346,1.1161
25.5605,351,1.1323
25.5649,376,1.2129
25.5699,385,1.2419
25.5744,363,1.1710
25.5789,347,1.1194
25.5833,367,1.1839
25.5877,390,1.2581
25.5925,370,1.1935
25.5969,348,1.1226
25.6014,361,1.1645
25.6058,386,1.2452
25.6102,388,1.2516
25.6146,365,1.1774
25.6190,353,1.1387
25.6234,377,1.2161
25.6277,397,1.2806
25.6321,386,1.2452
25.6365,366,1.1806
25.6409,370,1.1935
25.6453,391,1.2613
25.6497,398,1.2839
25.6543,378,1.2194
25.6587,364,1.1742
25.6631,378,1.2194
25.6674,397,1.2806
25.6718,384,1.2387
25.6762,363,1.1710
25.6806,368,1.1871
25.6850,394,1.2710
25.6894,408,1.3161
25.6938,393,1.2677
25.6982,375,1.2097
25.7026,398,1.2839
25.7070,421,1.3581
25.7114,412,1.3290
25.7158,392,1.2645
25.7202,395,1.2742
25.7245,420,1.3548
25.7289,441,1.4226
25.7333,427,1.3774
25.7377,408,1.3161
25.7421,419,1.3516
25.7465,444,1.4323
25.7508,444,1.4323
25.7552,420,1.3548
25.7596,411,1.3258
25.7640,431,1.3903
25.7684,453,1.4613
25.7728,441,1.4226
25.7774,420,1.3548
25.7817,436,1.4065
25.7861,462,1.4903
25.7907,463,1.4935
25.7951,442,1.4258
25.7995,436,1.4065
25.8039,456,1.4710
25.8084,475,1.5323
25.8128,459,1.4806
25.8172,441,1.4226
25.8216,457,1.4742
25.8260,482,1.5548
25.8304,480,1.5484
25.8348,463,1.4935
25.8391,458,1.4774
25.8435,483,1.5581
25.8479,504,1.6258
25.8523,496,1.6000
25.8566,472,1.5226
25.8610,479,1.5452
25.8654,501,1.6161
25.8698,508,1.6387
25.8741,493,1.5903
25.8785,481,1.5516
25.8830,503,1.6226
25.8873,519,1.6742
25.8917,506,1.6323
25.8961,491,1.5839
25.9007,503,1.6226
25.9051,526,1.6968
25.9095,533,1.7194
25.9139,509,1.6419
25.9183,491,1.5839
25.9227,512,1.6516
25.9271,537,1.7323
25.9314,532,1.7161
25.9358,511,1.6484
25.9402,508,1.6387
25.9447,532,1.7161
25.9491,549,1.7710
25.9536,533,1.7194
25.9581,517,1.6677
25.9626,535,1.7258
25.9670,556,1.7935
25.9722,542,1.7484
25.9766,522,1.6839
25.9810,527,1.7000
25.9855,555,1.7903
25.9900,561,1.8097
25.9944,544,1.7548
25.9989,529,1.7065
26.0040,555,1.7903
26.0084,583,1.8806
26.0129,571,1.8419
26.0174,551,1.7774
26.0218,564,1.8194
26.0266,588,1.8968
26.0310,585,1.8871
26.0355,564,1.8194
26.0400,559,1.8032
26.0453,591,1.9065
26.0497,605,1.9516
26.0541,586,1.8903
26.0586,563,1.8161
26.0630,575,1.8548
26.0675,593,1.9129
26.0720,578,1.8645
26.0771,547,1.7645
26.0816,557,1.7968
26.0869,585,1.8871
26.0913,581,1.8742
26.0958,561,1.8097
26.1003,559,1.8032
26.1047,579,1.8677
26.1091,594,1.9161
26.1135,573,1.8484
26.1179,542,1.7484
26.1222,547,1.7645
26.1266,564,1.8194
26.1309,579,1.8677
26.1353,602,1.9419
26.1397,667,2.1516
26.1440,780,2.5161
26.1485,924,2.9806
26.1528,999,3.2226
26.1572,1002,3.2323
26.1615,1001,3.2290
26.1659,1001,3.2290
26.1703,998,3.2194
26.1746,952,3.0710
26.1790,787,2.5387
26.1834,658,2.1226
26.1878,582,1.8774
26.1922,525,1.6935
26.1966,493,1.5903
26.2010,500,1.6129
26.2054,533,1.7194
26.2098,553,1.7839
26.2142,539,1.7387
26.2186,524,1.6903
26.2230,541,1.7452
26.2274,561,1.8097
26.2319,551,1.7774
26.2362,533,1.7194
26.2406,537,1.7323
26.2450,559,1.8032
26.2493,572,1.8452
26.2537,555,1.7903
26.2581,537,1.7323
26.2625,558,1.8000
26.2669,583,1.8806
26.2713,580,1.8710
26.2756,561,1.8097
26.2800,560,1.8065
26.2844,579,1.8677
26.2888,599,1.9323
26.2936,583,1.8806
26.2979,571,1.8419
26.3024,590,1.9032
26.3067,614,1.9806
26.3111,612,1.9742
26.3155,595,1.9194
26.3199,592,1.9097
26.3243,615,1.9839
26.3287,637,2.0548
26.3337,619,1.9968
26.3382,603,1.9452
26.3426,624,2.0129
26.3470,653,2.1065
26.3514,656,2.1161
26.3557,644,2.0774
26.3601,648,2.0903
26.3645,675,2.1774
26.3689,697,2.2484
26.3733,681,2.1968
26.3777,664,2.1419
26.3821,684,2.2065
26.3865,714,2.3032
26.3908,718,2.3161
26.3952,692,2.2323
26.3997,684,2.2065
26.4041,713,2.3000
26.4086,737,2.3774
26.4130,723,2.3323
26.4173,702,2.2645
26.4217,711,2.2935
26.4261,725,2.3387
26.4305,715,2.3065
26.4348,686,2.2129
26.4392,664,2.1419
26.4436,668,2.1548
26.4481,677,2.1839
26.4525,652,2.1032
26.4569,617,1.9903
26.4613,609,1.9645
26.4657,616,1.9871
26.4701,614,1.9806
26.4745,582,1.8774
26.4789,561,1.8097
26.4832,580,1.8710
26.4876,600,1.9355
26.4920,593,1.9129
26.4964,571,1.8419
26.5008,570,1.8387
26.5052,592,1.9097
26.5096,608,1.9613
26.5140,591,1.9065
26.5183,570,1.8387
26.5228,586,1.8903
26.5272,613,1.9774
26.5316,608,1.9613
26.5359,588,1.8968
26.5404,588,1.8968
26.5448,607,1.9581
26.5492,623,2.0097
26.5535,604,1.9484
26.5579,587,1.8935
26.5623,602,1.9419
26.5667,623,2.0097
26.5711,619,1.9968
26.5761,598,1.9290
26.5805,597,1.9258
26.5849,616,1.9871
26.5893,629,2.0290
26.5937,608,1.9613
26.5982,587,1.8935
26.6025,601,1.9387
26.6069,622,2.0065
26.6113,618,1.9935
26.6157,595,1.9194
26.6200,587,1.8935
26.6244,605,1.9516
26.6288,621,2.0032
26.6332,597,1.9258
26.6376,575,1.8548
26.6420,585,1.8871
26.6464,606,1.9548
26.6508,605,1.9516
26.6550,588,1.8968
26.6592,575,1.8548
26.6636,596,1.9226
26.6678,619,1.9968
26.6739,596,1.9226
26.6782,572,1.8452
26.6824,581,1.8742
26.6867,598,1.9290
26.6910,599,1.9323
26.6952,581,1.8742
