time_s,adc_raw,voltage
0.0000,432,1.3935
0.0152,436,1.4065
0.0196,430,1.3871
0.0240,502,1.6194
0.0283,534,1.7226
0.0327,469,1.5129
0.0372,419,1.3516
0.0415,471,1.5194
0.0460,564,1.8194
0.0503,602,1.9419
0.0547,601,1.9387
0.0591,677,2.1839
0.0636,793,2.5581
0.0680,807,2.6032
0.0724,658,2.1226
0.0768,478,1.5419
0.0812,420,1.3548
0.0856,447,1.4419
0.0900,423,1.3645
0.0944,340,1.0968
0.0988,318,1.0258
0.1032,394,1.2710
0.1075,457,1.4742
0.1118,436,1.4065
0.1162,386,1.2452
0.1205,403,1.3000
0.1248,464,1.4968
0.1291,477,1.5387
0.1334,417,1.3452
0.1377,378,1.2194
0.1420,423,1.3645
0.1463,487,1.5710
0.1505,465,1.5000
0.1548,394,1.2710
0.1591,394,1.2710
0.1634,468,1.5097
0.1677,504,1.6258
0.1721,455,1.4677
0.1766,402,1.2968
0.1812,440,1.4194
0.1862,518,1.6710
0.1908,498,1.6065
0.1953,437,1.4097
0.1998,453,1.4613
0.2044,529,1.7065
0.2091,544,1.7548
0.2139,480,1.5484
0.2184,465,1.5000
0.2233,540,1.7419
0.2280,518,1.6710
0.2323,0,0.0000
0.2366,0,0.0000
0.2411,65,0.2097
0.2454,349,1.1258
0.2497,518,1.6710
0.2540,536,1.7290
0.2582,552,1.7806
0.2624,632,2.0387
0.2666,701,2.2613
0.2708,690,2.2258
0.2751,661,2.1323
0.2793,696,2.2452
0.2836,774,2.4968
0.2879,802,2.5871
0.2922,761,2.4548
0.2966,728,2.3484
0.3009,774,2.4968
0.3051,844,2.7226
0.3094,834,2.6903
0.3137,767,2.4742
0.3180,761,2.4548
0.3222,819,2.6419
0.3265,852,2.7484
0.3308,813,2.6226
0.3351,751,2.4226
0.3394,763,2.4613
0.3437,830,2.6774
0.3479,839,2.7065
0.3522,764,2.4645
0.3564,712,2.2968
0.3607,759,2.4484
0.3649,822,2.6516
0.3691,799,2.5774
0.3734,725,2.3387
0.3776,707,2.2806
0.3818,760,2.4516
0.3860,799,2.5774
0.3902,765,2.4677
0.3944,696,2.2452
0.3987,702,2.2645
0.4030,773,2.4935
0.4072,793,2.5581
0.4115,738,2.3806
0.4158,695,2.2419
0.4200,730,2.3548
0.4243,794,2.5613
0.4285,787,2.5387
0.4327,715,2.3065
0.4370,677,2.1839
0.4412,726,2.3419
0.4455,782,2.5226
0.4498,756,2.4387
0.4541,689,2.2226
0.4584,681,2.1968
0.4627,737,2.3774
0.4670,754,2.4323
0.4713,700,2.2581
0.4756,651,2.1000
0.4798,678,2.1871
0.4841,732,2.3613
0.4884,729,2.3516
0.4926,668,2.1548
0.4968,636,2.0516
0.5010,682,2.2000
0.5052,733,2.3645
0.5094,703,2.2677
0.5136,640,2.0645
0.5178,640,2.0645
0.5221,699,2.2548
0.5264,734,2.3677
0.5307,687,2.2161
0.5350,624,2.0129
0.5394,637,2.0548
0.5437,696,2.2452
0.5480,694,2.2387
0.5523,621,2.0032
0.5567,579,1.8677
0.5610,620,2.0000
0.5652,672,2.1677
0.5695,644,2.0774
0.5738,582,1.8774
0.5780,583,1.8806
0.5823,636,2.0516
0.5865,665,2.1452
0.5907,619,1.9968
0.5949,558,1.8000
0.5991,571,1.8419
0.6033,641,2.0677
0.6076,649,2.0935
0.6118,587,1.8935
0.6160,546,1.7613
0.6201,574,1.8516
0.6243,626,2.0194
0.6286,616,1.9871
0.6328,554,1.7871
0.6370,526,1.6968
0.6412,576,1.8581
0.6454,640,2.0645
0.6496,621,2.0032
0.6538,565,1.8226
0.6581,567,1.8290
0.6624,618,1.9935
0.6667,643,2.0742
0.6710,589,1.9000
0.6753,531,1.7129
0.6797,556,1.7935
0.6840,617,1.9903
0.6883,617,1.9903
0.6926,544,1.7548
0.6971,509,1.6419
0.7014,558,1.8000
0.7057,605,1.9516
0.7100,577,1.8613
0.7143,522,1.6839
0.7187,538,1.7355
0.7230,598,1.9290
0.7273,611,1.9710
0.7317,551,1.7774
0.7360,506,1.6323
0.7404,536,1.7290
0.7447,588,1.8968
0.7490,573,1.8484
0.7534,515,1.6613
0.7577,513,1.6548
0.7620,573,1.8484
0.7663,605,1.9516
0.7706,556,1.7935
0.7749,500,1.6129
0.7792,525,1.6935
0.7835,588,1.8968
0.7878,591,1.9065
0.7920,530,1.7097
0.7963,491,1.5839
0.8006,515,1.6613
0.8048,568,1.8323
0.8091,548,1.7677
0.8134,472,1.5226
0.8177,454,1.4645
0.8220,517,1.6677
0.8263,543,1.7516
0.8306,490,1.5806
0.8349,447,1.4419
0.8392,481,1.5516
0.8435,540,1.7419
0.8478,535,1.7258
0.8520,468,1.5097
0.8563,425,1.3710
0.8606,462,1.4903
0.8649,515,1.6613
0.8692,489,1.5774
0.8735,415,1.3387
0.8777,410,1.3226
0.8820,472,1.5226
0.8862,507,1.6355
0.8905,462,1.4903
0.8948,407,1.3129
0.8992,432,1.3935
0.9035,497,1.6032
0.9078,510,1.6452
0.9121,456,1.4710
0.9163,421,1.3581
0.9206,466,1.5032
0.9249,529,1.7065
0.9292,509,1.6419
0.9335,443,1.4290
0.9377,436,1.4065
0.9420,484,1.5613
0.9463,522,1.6839
0.9505,536,1.7290
0.9548,565,1.8226
0.9591,668,2.1548
0.9634,822,2.6516
0.9677,855,2.7581
0.9721,727,2.3452
0.9764,568,1.8323
0.9806,506,1.6323
0.9848,488,1.5742
0.9890,419,1.3516
0.9932,336,1.0839
0.9975,326,1.0516
1.0018,388,1.2516
1.0060,441,1.4226
1.0102,422,1.3613
1.0145,373,1.2032
1.0187,380,1.2258
1.0229,435,1.4032
1.0271,447,1.4419
1.0313,384,1.2387
1.0356,335,1.0806
1.0398,371,1.1968
1.0440,435,1.4032
1.0482,429,1.3839
1.0525,375,1.2097
1.0567,360,1.1613
1.0610,416,1.3419
1.0652,466,1.5032
1.0694,434,1.4000
1.0736,365,1.1774
1.0779,369,1.1903
1.0821,441,1.4226
1.0863,467,1.5065
1.0906,416,1.3419
1.0948,369,1.1903
1.0990,396,1.2774
1.1032,470,1.5161
1.1074,488,1.5742
1.1117,433,1.3968
1.1159,401,1.2935
1.1201,441,1.4226
1.1243,486,1.5677
1.1285,455,1.4677
1.1328,388,1.2516
1.1370,376,1.2129
1.1412,429,1.3839
1.1454,481,1.5516
1.1496,465,1.5000
1.1539,421,1.3581
1.1581,431,1.3903
1.1623,485,1.5645
1.1665,500,1.6129
1.1707,443,1.4290
1.1750,402,1.2968
1.1793,446,1.4387
1.1835,517,1.6677
1.1877,524,1.6903
1.1919,468,1.5097
1.1961,435,1.4032
1.2003,472,1.5226
1.2045,525,1.6935
1.2087,491,1.5839
1.2129,405,1.3065
1.2171,382,1.2323
1.2213,433,1.3968
1.2255,467,1.5065
1.2297,432,1.3935
1.2339,372,1.2000
1.2381,368,1.1871
1.2423,420,1.3548
1.2466,439,1.4161
1.2508,396,1.2774
1.2550,352,1.1355
1.2593,376,1.2129
1.2635,425,1.3710
1.2677,410,1.3226
1.2719,349,1.1258
1.2761,321,1.0355
1.2803,359,1.1581
1.2846,410,1.3226
1.2888,391,1.2613
1.2930,322,1.0387
1.2973,311,1.0032
1.3016,376,1.2129
1.3059,415,1.3387
1.3101,367,1.1839
1.3143,312,1.0065
1.3186,335,1.0806
1.3228,400,1.2903
1.3271,410,1.3226
1.3313,350,1.1290
1.3355,307,0.9903
1.3397,344,1.1097
1.3440,408,1.3161
1.3482,400,1.2903
1.3524,332,1.0710
1.3566,313,1.0097
1.3609,366,1.1806
1.3651,413,1.3323
1.3693,384,1.2387
1.3735,327,1.0548
1.3777,328,1.0581
1.3819,388,1.2516
1.3862,418,1.3484
1.3904,373,1.2032
1.3946,321,1.0355
1.3988,358,1.1548
1.4031,429,1.3839
1.4073,431,1.3903
1.4115,377,1.2161
1.4157,350,1.1290
1.4199,390,1.2581
1.4241,443,1.4290
1.4283,428,1.3806
1.4325,362,1.1677
1.4368,340,1.0968
1.4411,392,1.2645
1.4454,423,1.3645
1.4498,372,1.2000
1.4541,306,0.9871
1.4584,318,1.0258
1.4627,380,1.2258
1.4670,391,1.2613
1.4712,338,1.0903
1.4755,301,0.9710
1.4798,336,1.0839
1.4840,399,1.2871
1.4884,385,1.2419
1.4928,314,1.0129
1.4972,307,0.9903
1.5015,375,1.2097
1.5057,411,1.3258
1.5100,365,1.1774
1.5144,320,1.0323
1.5187,349,1.1258
1.5230,413,1.3323
1.5273,419,1.3516
1.5316,370,1.1935
1.5359,348,1.1226
1.5401,395,1.2742
1.5443,458,1.4774
1.5486,441,1.4226
1.5529,375,1.2097
1.5572,372,1.2000
1.5615,432,1.3935
1.5658,459,1.4806
1.5700,412,1.3290
1.5743,357,1.1516
1.5785,374,1.2065
1.5828,435,1.4032
1.5870,442,1.4258
1.5913,380,1.2258
1.5955,336,1.0839
1.5997,376,1.2129
1.6039,438,1.4129
1.6081,428,1.3806
1.6124,364,1.1742
1.6166,358,1.1548
1.6208,418,1.3484
1.6250,463,1.4935
1.6293,431,1.3903
1.6335,369,1.1903
1.6377,369,1.1903
1.6419,431,1.3903
1.6462,454,1.4645
1.6505,397,1.2806
1.6547,347,1.1194
1.6591,385,1.2419
1.6634,453,1.4613
1.6677,453,1.4613
1.6719,406,1.3097
1.6762,406,1.3097
1.6805,466,1.5032
1.6848,517,1.6677
1.6891,486,1.5677
1.6934,422,1.3613
1.6976,421,1.3581
1.7019,481,1.5516
1.7062,508,1.6387
1.7105,459,1.4806
1.7147,413,1.3323
1.7190,449,1.4484
1.7232,512,1.6516
1.7274,515,1.6613
1.7316,472,1.5226
1.7359,457,1.4742
1.7401,498,1.6065
1.7443,543,1.7516
1.7485,514,1.6581
1.7527,444,1.4323
1.7570,438,1.4129
1.7612,505,1.6290
1.7654,547,1.7645
1.7697,515,1.6613
1.7739,467,1.5065
1.7782,483,1.5581
1.7825,540,1.7419
1.7867,552,1.7806
1.7910,495,1.5968
1.7952,451,1.4548
1.7994,488,1.5742
1.8036,550,1.7742
1.8078,541,1.7452
1.8120,479,1.5452
1.8163,470,1.5161
1.8205,518,1.6710
1.8247,560,1.8065
1.8289,532,1.7161
1.8332,475,1.5323
1.8374,494,1.5935
1.8416,593,1.9129
1.8458,679,2.1903
1.8500,698,2.2516
1.8547,748,2.4129
1.8590,867,2.7968
1.8633,936,3.0194
1.8675,854,2.7548
1.8717,672,2.1677
1.8760,550,1.7742
1.8803,537,1.7323
1.8846,556,1.7935
1.8890,515,1.6613
1.8933,449,1.4484
1.8976,469,1.5129
1.9019,560,1.8065
1.9063,604,1.9484
1.9106,561,1.8097
1.9149,521,1.6806
1.9192,554,1.7871
1.9236,606,1.9548
1.9279,584,1.8839
1.9323,515,1.6613
1.9367,502,1.6194
1.9410,553,1.7839
1.9452,585,1.8871
1.9495,544,1.7548
1.9539,485,1.5645
1.9582,500,1.6129
1.9625,572,1.8452
1.9668,589,1.9000
1.9711,532,1.7161
1.9754,500,1.6129
1.9797,553,1.7839
1.9840,613,1.9774
1.9883,590,1.9032
1.9926,533,1.7194
1.9968,532,1.7161
2.0011,597,1.9258
2.0055,639,2.0613
2.0099,602,1.9419
2.0143,550,1.7742
2.0187,575,1.8548
2.0231,635,2.0484
2.0276,625,2.0161
2.0320,558,1.8000
2.0365,543,1.7516
2.0409,607,1.9581
2.0453,646,2.0839
2.0498,601,1.9387
2.0543,562,1.8129
2.0587,609,1.9645
2.0631,673,2.1710
2.0675,656,2.1161
2.0720,583,1.8806
2.0763,579,1.8677
2.0808,653,2.1065
2.0852,701,2.2613
2.0896,663,2.1387
2.0940,608,1.9613
2.0983,618,1.9935
2.1027,677,2.1839
2.1071,680,2.1935
2.1115,608,1.9613
2.1159,575,1.8548
2.1202,631,2.0355
2.1246,688,2.2194
2.1290,658,2.1226
2.1333,594,1.9161
2.1377,601,1.9387
2.1420,650,2.0968
2.1464,634,2.0452
2.1508,559,1.8032
2.1551,518,1.6710
2.1595,557,1.7968
2.1639,601,1.9387
2.1682,574,1.8516
2.1726,506,1.6323
2.1769,495,1.5968
2.1813,559,1.8032
2.1857,587,1.8935
2.1901,538,1.7355
2.1945,500,1.6129
2.1989,550,1.7742
2.2032,620,2.0000
2.2075,602,1.9419
2.2119,524,1.6903
2.2163,511,1.6484
2.2206,571,1.8419
2.2250,611,1.9710
2.2294,569,1.8355
2.2338,515,1.6613
2.2381,533,1.7194
2.2425,601,1.9387
2.2468,611,1.9710
2.2512,556,1.7935
2.2555,532,1.7161
2.2599,587,1.8935
2.2642,642,2.0710
2.2686,614,1.9806
2.2729,542,1.7484
2.2773,544,1.7548
2.2817,607,1.9581
2.2860,625,2.0161
2.2903,579,1.8677
2.2947,541,1.7452
2.2991,572,1.8452
2.3035,626,2.0194
2.3078,620,2.0000
2.3122,568,1.8323
2.3166,560,1.8065
2.3210,616,1.9871
2.3254,647,2.0871
2.3297,603,1.9452
2.3341,545,1.7581
2.3385,571,1.8419
2.3429,633,2.0419
2.3472,625,2.0161
2.3516,566,1.8258
2.3561,559,1.8032
2.3605,624,2.0129
2.3648,662,2.1355
2.3692,617,1.9903
2.3736,560,1.8065
2.3780,579,1.8677
2.3824,641,2.0677
2.3868,640,2.0645
2.3911,576,1.8581
2.3955,545,1.7581
2.3999,592,1.9097
2.4043,643,2.0742
2.4087,615,1.9839
2.4131,559,1.8032
2.4175,575,1.8548
2.4219,647,2.0871
2.4263,653,2.1065
2.4306,598,1.9290
2.4350,574,1.8516
2.4394,627,2.0226
2.4438,683,2.2032
2.4482,647,2.0871
2.4526,577,1.8613
2.4569,577,1.8613
2.4613,636,2.0516
2.4657,657,2.1194
2.4700,602,1.9419
2.4744,558,1.8000
2.4787,591,1.9065
2.4832,654,2.1097
2.4876,640,2.0645
2.4919,570,1.8387
2.4962,562,1.8129
2.5006,626,2.0194
2.5050,660,2.1290
2.5094,615,1.9839
2.5138,578,1.8645
2.5182,622,2.0065
2.5226,681,2.1968
2.5270,672,2.1677
2.5314,606,1.9548
2.5358,590,1.9032
2.5401,651,2.1000
2.5445,693,2.2355
2.5489,649,2.0935
2.5532,579,1.8677
2.5576,582,1.8774
2.5620,652,2.1032
2.5664,663,2.1387
2.5708,598,1.9290
2.5751,561,1.8097
2.5795,606,1.9548
2.5839,654,2.1097
2.5883,620,2.0000
2.5927,552,1.7806
2.5971,563,1.8161
2.6015,617,1.9903
2.6059,623,2.0097
2.6102,552,1.7806
2.6146,504,1.6258
2.6189,533,1.7194
2.6233,582,1.8774
2.6276,556,1.7935
2.6320,483,1.5581
2.6363,472,1.5226
2.6406,532,1.7161
2.6449,561,1.8097
2.6493,501,1.6161
2.6536,430,1.3871
2.6580,447,1.4419
2.6623,506,1.6323
2.6667,499,1.6097
2.6710,435,1.4032
2.6753,413,1.3323
2.6797,455,1.4677
2.6840,497,1.6032
2.6884,469,1.5129
2.6927,405,1.3065
2.6971,408,1.3161
2.7014,475,1.5323
2.7057,492,1.5871
2.7101,434,1.4000
2.7144,395,1.2742
2.7187,434,1.4000
2.7230,494,1.5935
2.7273,474,1.5290
2.7317,408,1.3161
2.7360,404,1.3032
2.7404,461,1.4871
2.7447,489,1.5774
2.7490,447,1.4419
2.7534,409,1.3194
2.7577,458,1.4774
2.7621,571,1.8419
2.7664,640,2.0645
2.7708,656,2.1161
2.7751,675,2.1774
2.7794,704,2.2710
2.7838,665,2.1452
2.7882,526,1.6968
2.7925,400,1.2903
2.7969,381,1.2290
2.8012,429,1.3839
2.8055,430,1.3871
2.8099,367,1.1839
2.8142,329,1.0613
2.8186,377,1.2161
2.8229,445,1.4355
2.8272,445,1.4355
2.8315,389,1.2548
2.8359,380,1.2258
2.8430,481,1.5516
2.8475,463,1.4935
2.8519,397,1.2806
2.8562,392,1.2645
2.8605,458,1.4774
2.8648,500,1.6129
2.8692,450,1.4516
2.8735,390,1.2581
2.8778,412,1.3290
2.8820,477,1.5387
2.8863,483,1.5581
2.8906,423,1.3645
2.8948,399,1.2871
2.8991,457,1.4742
2.9034,521,1.6806
2.9076,505,1.6290
2.9119,452,1.4581
2.9162,453,1.4613
2.9204,513,1.6548
2.9247,545,1.7581
2.9289,499,1.6097
2.9332,431,1.3903
2.9375,445,1.4355
2.9418,518,1.6710
2.9460,527,1.7000
2.9503,463,1.4935
2.9546,428,1.3806
2.9588,469,1.5129
2.9631,520,1.6774
2.9674,502,1.6194
2.9717,448,1.4452
2.9760,448,1.4452
2.9803,515,1.6613
2.9846,557,1.7968
2.9889,523,1.6871
2.9932,475,1.5323
2.9974,507,1.6355
3.0017,592,1.9097
3.0060,623,2.0097
3.0103,561,1.8097
3.0146,529,1.7065
3.0189,573,1.8484
3.0232,625,2.0161
3.0274,603,1.9452
3.0317,540,1.7419
3.0360,524,1.6903
3.0403,581,1.8742
3.0445,628,2.0258
3.0488,589,1.9000
3.0530,527,1.7000
3.0572,542,1.7484
3.0615,614,1.9806
3.0657,628,2.0258
3.0699,562,1.8129
3.0742,503,1.6226
3.0784,522,1.6839
3.0826,583,1.8806
3.0869,584,1.8839
3.0911,522,1.6839
3.0954,494,1.5935
3.0997,552,1.7806
3.1040,621,2.0032
3.1082,602,1.9419
3.1125,534,1.7226
3.1167,531,1.7129
3.1209,584,1.8839
3.1251,615,1.9839
3.1294,581,1.8742
3.1336,527,1.7000
3.1379,545,1.7581
3.1421,608,1.9613
3.1463,611,1.9710
3.1505,537,1.7323
3.1547,492,1.5871
3.1589,534,1.7226
3.1631,599,1.9323
3.1674,594,1.9161
3.1716,540,1.7419
3.1758,539,1.7387
3.1800,596,1.9226
3.1843,646,2.0839
3.1885,614,1.9806
3.1927,543,1.7516
3.1969,547,1.7645
3.2011,615,1.9839
3.2053,645,2.0806
3.2096,598,1.9290
3.2139,555,1.7903
3.2182,576,1.8581
3.2224,640,2.0645
3.2266,646,2.0839
3.2308,585,1.8871
3.2351,546,1.7613
3.2393,595,1.9194
3.2435,657,2.1194
3.2477,644,2.0774
3.2519,575,1.8548
3.2562,561,1.8097
3.2604,607,1.9581
3.2646,638,2.0581
3.2688,600,1.9355
3.2731,544,1.7548
3.2773,554,1.7871
3.2816,616,1.9871
3.2858,629,2.0290
3.2900,568,1.8323
3.2942,525,1.6935
3.2985,560,1.8065
3.3027,620,2.0000
3.3069,613,1.9774
3.3111,546,1.7613
3.3153,513,1.6548
3.3195,551,1.7774
3.3237,606,1.9548
3.3279,585,1.8871
3.3322,515,1.6613
3.3364,514,1.6581
3.3406,589,1.9000
3.3448,631,2.0355
3.3490,591,1.9065
3.3532,536,1.7290
3.3574,553,1.7839
3.3617,627,2.0226
3.3659,656,2.1161
3.3702,609,1.9645
3.3744,568,1.8323
3.3786,608,1.9613
3.3829,677,2.1839
3.3871,662,2.1355
3.3913,589,1.9000
3.3956,568,1.8323
3.3998,626,2.0194
3.4041,672,2.1677
3.4083,646,2.0839
3.4125,582,1.8774
3.4168,580,1.8710
3.4211,643,2.0742
3.4254,668,2.1548
3.4297,617,1.9903
3.4340,575,1.8548
3.4383,610,1.9677
3.4427,677,2.1839
3.4470,667,2.1516
3.4513,607,1.9581
3.4556,596,1.9226
3.4598,648,2.0903
3.4641,686,2.2129
3.4684,646,2.0839
3.4726,587,1.8935
3.4768,593,1.9129
3.4810,660,2.1290
3.4852,683,2.2032
3.4894,627,2.0226
3.4936,583,1.8806
3.4978,616,1.9871
3.5021,677,2.1839
3.5063,681,2.1968
3.5105,627,2.0226
3.5147,600,1.9355
3.5189,646,2.0839
3.5232,704,2.2710
3.5275,688,2.2194
3.5318,618,1.9935
3.5361,617,1.9903
3.5404,685,2.2097
3.5447,714,2.3032
3.5490,653,2.1065
3.5533,599,1.9323
3.5576,646,2.0839
3.5620,747,2.4097
3.5663,803,2.5903
3.5705,812,2.6194
3.5749,870,2.8065
3.5794,966,3.1161
3.5838,992,3.2000
3.5881,882,2.8452
3.5925,705,2.2742
3.5968,636,2.0516
3.6011,672,2.1677
3.6054,667,2.1516
3.6097,586,1.8903
3.6140,531,1.7129
3.6183,576,1.8581
3.6226,658,2.1226
3.6269,681,2.1968
3.6312,644,2.0774
3.6355,639,2.0613
3.6398,643,2.0742
3.6441,599,1.9323
3.6484,494,1.5935
3.6527,399,1.2871
3.6570,414,1.3355
3.6613,505,1.6290
3.6656,530,1.7097
3.6699,462,1.4903
3.6741,419,1.3516
3.6784,449,1.4484
3.6827,500,1.6129
3.6869,491,1.5839
3.6912,427,1.3774
3.6955,409,1.3194
3.6998,468,1.5097
3.7040,511,1.6484
3.7083,477,1.5387
3.7126,419,1.3516
3.7170,447,1.4419
3.7216,546,1.7613
3.7259,561,1.8097
3.7302,490,1.5806
3.7345,444,1.4323
3.7387,482,1.5548
3.7430,535,1.7258
3.7473,520,1.6774
3.7516,455,1.4677
3.7558,443,1.4290
3.7601,504,1.6258
3.7644,546,1.7613
3.7686,501,1.6161
3.7729,439,1.4161
3.7772,464,1.4968
3.7814,545,1.7581
3.7857,555,1.7903
3.7900,488,1.5742
3.7943,453,1.4613
3.7985,497,1.6032
3.8028,556,1.7935
3.8072,542,1.7484
3.8115,475,1.5323
3.8158,464,1.4968
3.8200,542,1.7484
3.8244,607,1.9581
3.8286,577,1.8613
3.8329,527,1.7000
3.8372,555,1.7903
3.8415,626,2.0194
3.8458,634,2.0452
3.8500,577,1.8613
3.8544,551,1.7774
3.8587,598,1.9290
3.8630,662,2.1355
3.8673,649,2.0935
3.8716,579,1.8677
3.8759,572,1.8452
3.8801,646,2.0839
3.8844,695,2.2419
3.8886,648,2.0903
3.8930,591,1.9065
3.8973,614,1.9806
3.9015,698,2.2516
3.9057,720,2.3226
3.9100,662,2.1355
3.9143,623,2.0097
3.9185,663,2.1387
3.9228,718,2.3161
3.9270,693,2.2355
3.9313,610,1.9677
3.9355,593,1.9129
3.9397,646,2.0839
3.9439,674,2.1742
3.9482,626,2.0194
3.9524,560,1.8065
3.9566,556,1.7935
3.9608,604,1.9484
3.9650,614,1.9806
3.9693,550,1.7742
3.9735,490,1.5806
3.9778,511,1.6484
3.9820,567,1.8290
3.9862,554,1.7871
3.9905,475,1.5323
3.9948,447,1.4419
3.9991,495,1.5968
4.0033,536,1.7290
4.0076,500,1.6129
4.0118,427,1.3774
4.0161,419,1.3516
4.0203,484,1.5613
4.0245,519,1.6742
4.0287,470,1.5161
4.0329,412,1.3290
4.0372,431,1.3903
4.0414,490,1.5806
4.0457,486,1.5677
4.0499,424,1.3677
4.0541,390,1.2581
4.0583,427,1.3774
4.0625,488,1.5742
4.0667,476,1.5355
4.0710,408,1.3161
4.0752,392,1.2645
4.0794,452,1.4581
4.0836,501,1.6161
4.0878,471,1.5194
4.0921,414,1.3355
4.0963,431,1.3903
4.1005,498,1.6065
4.1047,531,1.7129
4.1089,489,1.5774
4.1131,446,1.4387
4.1173,489,1.5774
4.1216,569,1.8355
4.1258,572,1.8452
4.1300,498,1.6065
4.1342,535,1.7258
4.1385,596,1.9226
4.1427,557,1.7968
4.1469,455,1.4677
4.1512,358,1.1548
4.1554,335,1.0806
4.1596,404,1.3032
4.1638,458,1.4774
4.1681,422,1.3613
4.1723,362,1.1677
4.1765,379,1.2226
4.1808,449,1.4484
4.1850,459,1.4806
4.1893,394,1.2710
4.1935,350,1.1290
4.1977,380,1.2258
4.2020,443,1.4290
4.2062,440,1.4194
4.2104,382,1.2323
4.2146,366,1.1806
4.2189,426,1.3742
4.2231,470,1.5161
4.2273,426,1.3742
4.2315,364,1.1742
4.2357,370,1.1935
4.2400,433,1.3968
4.2442,462,1.4903
4.2485,417,1.3452
4.2527,363,1.1710
4.2569,393,1.2677
4.2611,468,1.5097
4.2654,467,1.5065
4.2696,387,1.2484
4.2739,353,1.1387
4.2782,410,1.3226
4.2824,477,1.5387
4.2866,465,1.5000
4.2909,402,1.2968
4.2951,392,1.2645
4.2994,456,1.4710
4.3036,504,1.6258
4.3078,470,1.5161
4.3120,413,1.3323
4.3162,429,1.3839
4.3204,502,1.6194
4.3247,530,1.7097
4.3289,479,1.5452
4.3331,434,1.4000
4.3373,467,1.5065
4.3416,533,1.7194
4.3458,534,1.7226
4.3501,467,1.5065
4.3543,437,1.4097
4.3585,509,1.6419
4.3627,605,1.9516
4.3670,638,2.0581
4.3712,651,2.1000
4.3755,744,2.4000
4.3798,862,2.7806
4.3841,874,2.8194
4.3883,741,2.3903
4.3925,576,1.8581
4.3967,522,1.6839
4.4009,551,1.7774
4.4052,540,1.7419
4.4094,461,1.4871
4.4135,418,1.3484
4.4178,462,1.4903
4.4221,529,1.7065
4.4263,530,1.7097
4.4307,483,1.5581
4.4350,476,1.5355
4.4394,530,1.7097
4.4438,563,1.8161
4.4482,514,1.6581
4.4526,452,1.4581
4.4569,474,1.5290
4.4612,548,1.7677
4.4655,549,1.7710
4.4698,477,1.5387
4.4741,440,1.4194
4.4784,481,1.5516
4.4826,529,1.7065
4.4869,499,1.6097
4.4912,444,1.4323
4.4955,449,1.4484
4.4997,515,1.6613
4.5040,563,1.8161
4.5083,544,1.7548
4.5126,513,1.6548
4.5169,559,1.8032
4.5212,643,2.0742
4.5254,650,2.0968
4.5296,582,1.8774
4.5338,558,1.8000
4.5380,604,1.9484
4.5423,657,2.1194
4.5465,642,2.0710
4.5507,584,1.8839
4.5549,576,1.8581
4.5592,643,2.0742
4.5634,688,2.2194
4.5676,646,2.0839
4.5718,580,1.8710
4.5761,599,1.9323
4.5803,672,2.1677
4.5845,690,2.2258
4.5887,635,2.0484
4.5930,598,1.9290
4.5973,636,2.0516
4.6016,712,2.2968
4.6059,728,2.3484
4.6102,671,2.1645
4.6144,658,2.1226
4.6186,721,2.3258
4.6228,772,2.4903
4.6270,729,2.3516
4.6313,654,2.1097
4.6355,651,2.1000
4.6397,708,2.2839
4.6439,724,2.3355
4.6482,668,2.1548
4.6525,612,1.9742
4.6569,631,2.0355
4.6613,686,2.2129
4.6656,677,2.1839
4.6698,596,1.9226
4.6741,563,1.8161
4.6784,612,1.9742
4.6826,661,2.1323
4.6869,626,2.0194
4.6912,566,1.8258
4.6955,570,1.8387
4.6997,629,2.0290
4.7040,642,2.0710
4.7082,582,1.8774
4.7125,527,1.7000
4.7167,566,1.8258
4.7209,646,2.0839
4.7251,645,2.0806
4.7294,570,1.8387
4.7336,545,1.7581
4.7378,594,1.9161
4.7420,647,2.0871
4.7463,624,2.0129
4.7506,561,1.8097
4.7549,557,1.7968
4.7593,618,1.9935
4.7637,656,2.1161
4.7680,610,1.9677
4.7723,556,1.7935
4.7766,586,1.8903
4.7809,654,2.1097
4.7851,651,2.1000
4.7894,580,1.8710
4.7937,559,1.8032
4.7980,609,1.9645
4.8023,653,2.1065
4.8066,626,2.0194
4.8108,564,1.8194
4.8151,556,1.7935
4.8193,617,1.9903
4.8235,655,2.1129
4.8277,619,1.9968
4.8319,559,1.8032
4.8362,573,1.8484
4.8404,634,2.0452
4.8446,634,2.0452
4.8488,563,1.8161
4.8530,515,1.6613
4.8573,537,1.7323
4.8615,594,1.9161
4.8657,584,1.8839
4.8699,508,1.6387
4.8742,485,1.5645
4.8785,553,1.7839
4.8828,609,1.9645
4.8871,568,1.8323
4.8914,507,1.6355
4.8957,519,1.6742
4.9000,583,1.8806
4.9042,600,1.9355
4.9085,546,1.7613
4.9128,498,1.6065
4.9170,530,1.7097
4.9213,595,1.9194
4.9256,588,1.8968
4.9299,514,1.6581
4.9341,492,1.5871
4.9384,552,1.7806
4.9427,597,1.9258
4.9470,558,1.8000
4.9514,499,1.6097
4.9556,514,1.6581
4.9599,582,1.8774
4.9642,608,1.9613
4.9684,556,1.7935
4.9727,508,1.6387
4.9771,537,1.7323
4.9814,602,1.9419
4.9857,586,1.8903
4.9900,509,1.6419
4.9942,492,1.5871
4.9985,551,1.7774
5.0028,595,1.9194
5.0144,506,1.6323
5.0189,562,1.8129
5.0232,589,1.9000
5.0275,535,1.7258
5.0318,466,1.5032
5.0361,481,1.5516
5.0404,548,1.7677
5.0447,552,1.7806
5.0490,486,1.5677
5.0532,452,1.4581
5.0575,498,1.6065
5.0618,557,1.7968
5.0660,542,1.7484
5.0703,476,1.5355
5.0745,460,1.4839
5.0788,519,1.6742
5.0830,562,1.8129
5.0873,517,1.6677
5.0917,455,1.4677
5.0960,485,1.5645
5.1002,564,1.8194
5.1045,578,1.8645
5.1087,520,1.6774
5.1129,468,1.5097
5.1171,485,1.5645
5.1213,542,1.7484
5.1256,529,1.7065
5.1298,446,1.4387
5.1340,417,1.3452
5.1382,474,1.5290
5.1424,528,1.7032
5.1467,495,1.5968
5.1509,435,1.4032
5.1551,442,1.4258
5.1593,508,1.6387
5.1635,546,1.7613
5.1678,503,1.6226
5.1720,441,1.4226
5.1763,461,1.4871
5.1806,535,1.7258
5.1849,554,1.7871
5.1892,497,1.6032
5.1934,472,1.5226
5.1977,517,1.6677
5.2020,554,1.7871
5.2063,528,1.7032
5.2106,489,1.5774
5.2149,541,1.7452
5.2193,678,2.1871
5.2236,799,2.5774
5.2279,838,2.7032
5.2322,801,2.5839
5.2365,777,2.5065
5.2408,746,2.4065
5.2451,648,2.0903
5.2494,514,1.6581
5.2536,462,1.4903
5.2578,503,1.6226
5.2621,532,1.7161
5.2663,494,1.5935
5.2706,432,1.3935
5.2749,441,1.4226
5.2792,522,1.6839
5.2835,559,1.8032
5.2878,506,1.6323
5.2921,442,1.4258
5.2963,467,1.5065
5.3006,536,1.7290
5.3048,537,1.7323
5.3090,469,1.5129
5.3132,439,1.4161
5.3174,484,1.5613
5.3216,543,1.7516
5.3258,527,1.7000
5.3300,454,1.4645
5.3342,437,1.4097
5.3384,500,1.6129
5.3427,541,1.7452
5.3469,497,1.6032
5.3512,436,1.4065
5.3555,456,1.4710
5.3598,532,1.7161
5.3642,552,1.7806
5.3685,501,1.6161
5.3728,476,1.5355
5.3772,525,1.6935
5.3816,585,1.8871
5.3860,551,1.7774
5.3904,473,1.5258
5.3948,468,1.5097
5.3993,542,1.7484
5.4037,571,1.8419
5.4081,507,1.6355
5.4125,450,1.4516
5.4170,482,1.5548
5.4214,537,1.7323
5.4258,511,1.6484
5.4303,439,1.4161
5.4348,441,1.4226
5.4393,516,1.6645
5.4438,538,1.7355
5.4482,480,1.5484
5.4526,443,1.4290
5.4570,488,1.5742
5.4615,547,1.7645
5.4658,529,1.7065
5.4702,462,1.4903
5.4745,454,1.4645
5.4791,526,1.6968
5.4834,559,1.8032
5.4878,504,1.6258
5.4922,455,1.4677
5.4965,492,1.5871
5.5009,555,1.7903
5.5053,536,1.7290
5.5096,458,1.4774
5.5139,431,1.3903
5.5182,482,1.5548
5.5226,514,1.6581
5.5270,461,1.4871
5.5313,391,1.2613
5.5356,401,1.2935
5.5400,470,1.5161
5.5444,477,1.5387
5.5487,406,1.3097
5.5531,364,1.1742
5.5574,410,1.3226
5.5618,471,1.5194
5.5662,441,1.4226
5.5705,366,1.1806
5.5755,376,1.2129
5.5799,456,1.4710
5.5843,466,1.5032
5.5886,394,1.2710
5.5930,361,1.1645
5.5973,413,1.3323
5.6016,474,1.5290
5.6060,449,1.4484
5.6104,380,1.2258
5.6148,380,1.2258
5.6191,448,1.4452
5.6235,480,1.5484
5.6279,437,1.4097
5.6322,397,1.2806
5.6366,433,1.3968
5.6410,499,1.6097
5.6454,489,1.5774
5.6497,421,1.3581
5.6540,414,1.3355
5.6584,490,1.5806
5.6627,535,1.7258
5.6671,491,1.5839
5.6715,434,1.4000
5.6759,461,1.4871
5.6802,549,1.7710
5.6846,573,1.8484
5.6890,507,1.6355
5.6933,468,1.5097
5.6977,517,1.6677
5.7021,568,1.8323
5.7065,537,1.7323
5.7108,467,1.5065
5.7152,477,1.5387
5.7196,554,1.7871
5.7240,568,1.8323
5.7284,498,1.6065
5.7328,462,1.4903
5.7371,511,1.6484
5.7414,570,1.8387
5.7458,544,1.7548
5.7501,480,1.5484
5.7545,491,1.5839
5.7589,564,1.8194
5.7633,590,1.9032
5.7677,532,1.7161
5.7721,478,1.5419
5.7765,507,1.6355
5.7808,582,1.8774
5.7852,586,1.8903
5.7896,517,1.6677
5.7939,493,1.5903
5.7984,555,1.7903
5.8028,594,1.9161
5.8071,548,1.7677
5.8115,502,1.6194
5.8159,533,1.7194
5.8202,601,1.9387
5.8245,605,1.9516
5.8289,544,1.7548
5.8333,510,1.6452
5.8377,550,1.7742
5.8420,599,1.9323
5.8464,569,1.8355
5.8508,527,1.7000
5.8551,567,1.8290
5.8595,652,2.1032
5.8639,668,2.1548
5.8683,592,1.9097
5.8727,547,1.7645
5.8771,591,1.9065
5.8814,651,2.1000
5.8858,633,2.0419
5.8901,574,1.8516
5.8945,591,1.9065
5.8989,668,2.1548
5.9033,704,2.2710
5.9077,664,2.1419
5.9121,626,2.0194
5.9164,671,2.1645
5.9208,740,2.3871
5.9252,721,2.3258
5.9296,642,2.0710
5.9340,617,1.9903
5.9384,672,2.1677
5.9427,713,2.3000
5.9471,662,2.1355
5.9514,599,1.9323
5.9557,626,2.0194
5.9602,708,2.2839
5.9646,713,2.3000
5.9690,637,2.0548
5.9733,601,1.9387
5.9777,649,2.0935
5.9821,693,2.2355
5.9865,654,2.1097
5.9909,609,1.9645
5.9953,644,2.0774
5.9997,714,2.3032
6.0041,721,2.3258
6.0085,662,2.1355
6.0129,636,2.0516
6.0173,694,2.2387
6.0217,748,2.4129
6.0261,711,2.2935
6.0304,632,2.0387
6.0348,630,2.0323
6.0393,699,2.2548
6.0437,703,2.2677
6.0481,633,2.0419
6.0524,591,1.9065
6.0567,635,2.0484
6.0611,684,2.2065
6.0654,664,2.1419
6.0698,619,1.9968
6.0742,657,2.1194
6.0785,782,2.5226
6.0829,906,2.9226
6.0872,937,3.0226
6.0915,885,2.8548
6.0959,841,2.7129
6.1002,791,2.5516
6.1046,698,2.2516
6.1089,572,1.8452
6.1132,522,1.6839
6.1176,573,1.8484
6.1219,612,1.9742
6.1263,564,1.8194
6.1306,504,1.6258
6.1350,537,1.7323
6.1394,627,2.0226
6.1437,645,2.0806
6.1481,578,1.8645
6.1524,540,1.7419
6.1568,594,1.9161
6.1611,664,2.1419
6.1654,643,2.0742
6.1698,564,1.8194
6.1741,550,1.7742
6.1784,612,1.9742
6.1828,639,2.0613
6.1871,585,1.8871
6.1915,528,1.7032
6.1958,563,1.8161
6.2001,626,2.0194
6.2045,617,1.9903
6.2088,551,1.7774
6.2131,520,1.6774
6.2175,574,1.8516
6.2218,626,2.0194
6.2262,602,1.9419
6.2305,549,1.7710
6.2348,565,1.8226
6.2392,632,2.0387
6.2436,637,2.0548
6.2479,565,1.8226
6.2522,522,1.6839
6.2565,561,1.8097
6.2609,615,1.9839
6.2652,583,1.8806
6.2696,504,1.6258
6.2739,494,1.5935
6.2782,557,1.7968
6.2826,588,1.8968
6.2869,538,1.7355
6.2913,485,1.5645
6.2956,507,1.6355
6.3000,579,1.8677
6.3043,580,1.8710
6.3086,509,1.6419
6.3130,488,1.5742
6.3173,558,1.8000
6.3216,621,2.0032
6.3260,585,1.8871
6.3303,518,1.6710
6.3347,518,1.6710
6.3390,580,1.8710
6.3433,596,1.9226
6.3477,534,1.7226
6.3520,488,1.5742
6.3562,519,1.6742
6.3605,582,1.8774
6.3647,575,1.8548
6.3690,498,1.6065
6.3733,470,1.5161
6.3775,526,1.6968
6.3818,563,1.8161
6.3861,512,1.6516
6.3904,440,1.4194
6.3946,439,1.4161
6.3989,492,1.5871
6.4032,503,1.6226
6.4075,442,1.4258
6.4117,395,1.2742
6.4159,431,1.3903
6.4202,505,1.6290
6.4244,503,1.6226
6.4286,441,1.4226
6.4328,425,1.3710
6.4370,480,1.5484
6.4413,531,1.7129
6.4455,498,1.6065
6.4498,428,1.3806
6.4541,427,1.3774
6.4584,493,1.5903
6.4627,527,1.7000
6.4670,474,1.5290
6.4713,414,1.3355
6.4756,446,1.4387
6.4799,526,1.6968
6.4842,532,1.7161
6.4885,461,1.4871
6.4928,443,1.4290
6.4971,507,1.6355
6.5015,560,1.8065
6.5057,537,1.7323
6.5101,480,1.5484
6.5144,491,1.5839
6.5187,560,1.8065
6.5230,589,1.9000
6.5273,533,1.7194
6.5315,480,1.5484
6.5358,520,1.6774
6.5400,595,1.9194
6.5443,590,1.9032
6.5485,515,1.6613
6.5527,490,1.5806
6.5569,537,1.7323
6.5611,577,1.8613
6.5654,547,1.7645
6.5696,481,1.5516
6.5738,472,1.5226
6.5780,532,1.7161
6.5822,567,1.8290
6.5864,520,1.6774
6.5907,465,1.5000
6.5949,488,1.5742
6.5993,561,1.8097
6.6036,564,1.8194
6.6079,490,1.5806
6.6122,451,1.4548
6.6165,498,1.6065
6.6207,564,1.8194
6.6250,549,1.7710
6.6293,482,1.5548
6.6336,475,1.5323
6.6379,541,1.7452
6.6422,573,1.8484
6.6465,519,1.6742
6.6508,460,1.4839
6.6551,487,1.5710
6.6593,552,1.7806
6.6636,554,1.7871
6.6679,492,1.5871
6.6721,457,1.4742
6.6763,499,1.6097
6.6805,565,1.8226
6.6847,555,1.7903
6.6890,484,1.5613
6.6932,465,1.5000
6.6974,526,1.6968
6.7017,570,1.8387
6.7059,539,1.7387
6.7102,488,1.5742
6.7144,502,1.6194
6.7187,567,1.8290
6.7229,580,1.8710
6.7272,517,1.6677
6.7315,470,1.5161
6.7358,508,1.6387
6.7401,578,1.8645
6.7445,565,1.8226
6.7487,489,1.5774
6.7530,467,1.5065
6.7572,526,1.6968
6.7615,572,1.8452
6.7658,538,1.7355
6.7701,478,1.5419
6.7744,497,1.6032
6.7786,576,1.8581
6.7829,611,1.9710
6.7871,558,1.8000
6.7914,507,1.6355
6.7957,534,1.7226
6.7999,600,1.9355
6.8041,595,1.9194
6.8083,525,1.6935
6.8125,504,1.6258
6.8168,553,1.7839
6.8210,599,1.9323
6.8252,570,1.8387
6.8294,492,1.5871
6.8336,481,1.5516
6.8378,552,1.7806
6.8420,591,1.9065
6.8462,543,1.7516
6.8505,488,1.5742
6.8547,517,1.6677
6.8590,588,1.8968
6.8633,595,1.9194
6.8676,534,1.7226
6.8719,496,1.6000
6.8763,534,1.7226
6.8805,585,1.8871
6.8849,569,1.8355
6.8893,526,1.6968
6.8935,564,1.8194
6.8978,691,2.2290
6.9020,801,2.5839
6.9062,840,2.7097
6.9105,813,2.6226
6.9148,796,2.5677
6.9190,761,2.4548
6.9233,667,2.1516
6.9275,546,1.7613
6.9318,479,1.5452
6.9360,499,1.6097
6.9402,548,1.7677
6.9444,527,1.7000
6.9486,453,1.4613
6.9529,445,1.4355
6.9571,519,1.6742
6.9613,569,1.8355
6.9655,533,1.7194
6.9698,474,1.5290
6.9740,481,1.5516
6.9783,548,1.7677
6.9825,580,1.8710
6.9868,526,1.6968
6.9910,475,1.5323
6.9953,508,1.6387
6.9996,578,1.8645
7.0040,571,1.8419
7.0083,497,1.6032
7.0126,480,1.5484
7.0169,544,1.7548
7.0213,593,1.9129
7.0256,558,1.8000
7.0298,498,1.6065
7.0340,507,1.6355
7.0383,577,1.8613
7.0425,610,1.9677
7.0468,561,1.8097
7.0511,515,1.6613
7.0553,562,1.8129
7.0596,631,2.0355
7.0639,620,2.0000
7.0681,553,1.7839
7.0724,533,1.7194
7.0766,580,1.8710
7.0808,621,2.0032
7.0850,591,1.9065
7.0892,522,1.6839
7.0935,527,1.7000
7.0977,602,1.9419
7.1019,640,2.0645
7.1061,588,1.8968
7.1103,534,1.7226
7.1145,568,1.8323
7.1188,640,2.0645
7.1230,654,2.1097
7.1273,593,1.9129
7.1316,555,1.7903
7.1359,594,1.9161
7.1402,652,2.1032
7.1446,636,2.0516
7.1489,565,1.8226
7.1532,557,1.7968
7.1575,625,2.0161
7.1618,663,2.1387
7.1661,613,1.9774
7.1704,557,1.7968
7.1747,582,1.8774
7.1791,643,2.0742
7.1834,635,2.0484
7.1877,561,1.8097
7.1920,527,1.7000
7.1963,567,1.8290
7.2006,612,1.9742
7.2049,575,1.8548
7.2093,495,1.5968
7.2136,489,1.5774
7.2179,566,1.8258
7.2222,597,1.9258
7.2265,539,1.7387
7.2308,491,1.5839
7.2351,526,1.6968
7.2394,589,1.9000
7.2437,582,1.8774
7.2480,520,1.6774
7.2523,500,1.6129
7.2566,553,1.7839
7.2609,601,1.9387
7.2652,568,1.8323
7.2695,498,1.6065
7.2738,501,1.6161
7.2781,565,1.8226
7.2824,585,1.8871
7.2867,523,1.6871
7.2910,482,1.5548
7.2953,526,1.6968
7.2997,592,1.9097
7.3040,585,1.8871
7.3084,517,1.6677
7.3127,504,1.6258
7.3170,565,1.8226
7.3212,612,1.9742
7.3255,574,1.8516
7.3298,507,1.6355
7.3340,518,1.6710
7.3383,594,1.9161
7.3425,610,1.9677
7.3468,541,1.7452
7.3511,493,1.5903
7.3554,531,1.7129
7.3596,588,1.8968
7.3639,578,1.8645
7.3681,510,1.6452
7.3723,482,1.5548
7.3765,534,1.7226
7.3807,581,1.8742
7.3850,543,1.7516
7.3892,470,1.5161
7.3934,469,1.5129
7.3976,536,1.7290
7.4018,566,1.8258
7.4061,524,1.6903
7.4103,473,1.5258
7.4145,490,1.5806
7.4188,555,1.7903
7.4231,563,1.8161
7.4273,504,1.6258
7.4317,474,1.5290
7.4365,531,1.7129
7.4408,580,1.8710
7.4452,544,1.7548
7.4495,482,1.5548
7.4537,495,1.5968
7.4580,563,1.8161
7.4622,573,1.8484
7.4665,516,1.6645
7.4707,468,1.5097
7.4750,499,1.6097
7.4793,563,1.8161
7.4836,557,1.7968
7.4879,483,1.5581
7.4921,452,1.4581
7.4963,509,1.6419
7.5005,564,1.8194
7.5048,537,1.7323
7.5090,481,1.5516
7.5132,494,1.5935
7.5174,559,1.8032
7.5216,589,1.9000
7.5258,542,1.7484
7.5301,482,1.5548
7.5343,500,1.6129
7.5385,577,1.8613
7.5427,591,1.9065
7.5469,525,1.6935
7.5512,483,1.5581
7.5555,526,1.6968
7.5598,585,1.8871
7.5641,565,1.8226
7.5684,502,1.6194
7.5728,500,1.6129
7.5770,571,1.8419
7.5814,614,1.9806
7.5857,576,1.8581
7.5900,522,1.6839
7.5943,554,1.7871
7.5986,625,2.0161
7.6029,623,2.0097
7.6072,557,1.7968
7.6114,529,1.7065
7.6157,578,1.8645
7.6200,628,2.0258
7.6242,612,1.9742
7.6285,548,1.7677
7.6328,543,1.7516
7.6371,607,1.9581
7.6413,641,2.0677
7.6456,592,1.9097
7.6498,528,1.7032
7.6541,551,1.7774
7.6584,623,2.0097
7.6626,636,2.0516
7.6668,581,1.8742
7.6711,548,1.7677
7.6753,592,1.9097
7.6795,654,2.1097
7.6838,643,2.0742
7.6880,575,1.8548
7.6923,558,1.8000
7.6965,637,2.0548
7.7007,722,2.3290
7.7050,743,2.3968
7.7093,757,2.4419
7.7136,876,2.8258
7.7179,1001,3.2290
7.7222,999,3.2226
7.7265,941,3.0355
7.7308,780,2.5161
7.7351,709,2.2871
7.7393,719,2.3194
7.7436,693,2.2355
7.7478,615,1.9839
7.7521,591,1.9065
7.7563,657,2.1194
7.7606,714,2.3032
7.7651,693,2.2355
7.7693,645,2.0806
7.7736,657,2.1194
7.7779,719,2.3194
7.7822,730,2.3548
7.7864,672,2.1677
7.7907,619,1.9968
7.7949,644,2.0774
7.7992,694,2.2387
7.8034,675,2.1774
7.8076,598,1.9290
7.8118,572,1.8452
7.8160,629,2.0290
7.8202,681,2.1968
7.8245,647,2.0871
7.8287,584,1.8839
7.8329,581,1.8742
7.8372,651,2.1000
7.8414,698,2.2516
7.8456,662,2.1355
7.8499,605,1.9516
7.8542,629,2.0290
7.8585,707,2.2806
7.8628,706,2.2774
7.8672,630,2.0323
7.8714,595,1.9194
7.8757,637,2.0548
7.8799,680,2.1935
7.8842,652,2.1032
7.8886,584,1.8839
7.8929,580,1.8710
7.8972,647,2.0871
7.9015,678,2.1871
7.9058,626,2.0194
7.9100,578,1.8645
7.9143,614,1.9806
7.9185,695,2.2419
7.9228,703,2.2677
7.9270,634,2.0452
7.9312,598,1.9290
7.9354,642,2.0710
7.9396,699,2.2548
7.9438,687,2.2161
7.9480,619,1.9968
7.9523,607,1.9581
7.9565,676,2.1806
7.9607,733,2.3645
7.9650,703,2.2677
7.9692,646,2.0839
7.9734,656,2.1161
7.9777,708,2.2839
7.9821,710,2.2903
7.9864,636,2.0516
7.9907,579,1.8677
7.9950,601,1.9387
7.9993,653,2.1065
8.0035,629,2.0290
8.0078,576,1.8581
8.0121,567,1.8290
8.0164,619,1.9968
8.0207,650,2.0968
8.0250,601,1.9387
8.0293,535,1.7258
8.0335,540,1.7419
8.0378,596,1.9226
8.0420,614,1.9806
8.0463,557,1.7968
8.0505,499,1.6097
8.0547,523,1.6871
8.0589,583,1.8806
8.0631,575,1.8548
8.0673,507,1.6355
8.0716,484,1.5613
8.0758,536,1.7290
8.0800,578,1.8645
8.0842,548,1.7677
8.0885,484,1.5613
8.0927,479,1.5452
8.0969,536,1.7290
8.1012,559,1.8032
8.1054,498,1.6065
8.1097,439,1.4161
8.1141,470,1.5161
8.1184,543,1.7516
8.1227,542,1.7484
8.1269,477,1.5387
8.1312,452,1.4581
8.1355,498,1.6065
8.1398,549,1.7710
8.1440,527,1.7000
8.1483,460,1.4839
8.1526,451,1.4548
8.1568,517,1.6677
8.1611,554,1.7871
8.1653,505,1.6290
8.1696,448,1.4452
8.1739,466,1.5032
8.1781,526,1.6968
8.1823,530,1.7097
8.1866,469,1.5129
8.1908,434,1.4000
8.1951,472,1.5226
8.1994,529,1.7065
8.2037,508,1.6387
8.2080,438,1.4129
8.2122,434,1.4000
8.2164,494,1.5935
8.2206,530,1.7097
8.2249,496,1.6000
8.2291,446,1.4387
8.2335,464,1.4968
8.2378,527,1.7000
8.2421,536,1.7290
8.2463,478,1.5419
8.2507,440,1.4194
8.2551,484,1.5613
8.2594,543,1.7516
8.2636,524,1.6903
8.2680,452,1.4581
8.2723,446,1.4387
8.2766,510,1.6452
8.2808,542,1.7484
8.2851,492,1.5871
8.2893,433,1.3968
8.2936,446,1.4387
8.2979,507,1.6355
8.3021,515,1.6613
8.3064,453,1.4613
8.3107,409,1.3194
8.3149,447,1.4419
8.3191,509,1.6419
8.3234,494,1.5935
8.3276,428,1.3806
8.3318,423,1.3645
8.3360,483,1.5581
8.3402,522,1.6839
8.3444,485,1.5645
8.3487,421,1.3581
8.3529,422,1.3613
8.3571,497,1.6032
8.3614,531,1.7129
8.3656,479,1.5452
8.3698,429,1.3839
8.3741,463,1.4935
8.3784,527,1.7000
8.3828,517,1.6677
8.3871,451,1.4548
8.3914,433,1.3968
8.3956,484,1.5613
8.3999,533,1.7194
8.4043,509,1.6419
8.4086,447,1.4419
8.4129,452,1.4581
8.4172,520,1.6774
8.4215,544,1.7548
8.4257,486,1.5677
8.4300,442,1.4258
8.4343,478,1.5419
8.4385,538,1.7355
8.4428,526,1.6968
8.4470,461,1.4871
8.4513,445,1.4355
8.4556,503,1.6226
8.4598,552,1.7806
8.4640,524,1.6903
8.4682,459,1.4806
8.4725,464,1.4968
8.4767,535,1.7258
8.4810,556,1.7935
8.4852,492,1.5871
8.4894,431,1.3903
8.4937,454,1.4645
8.4979,516,1.6645
8.5022,525,1.6935
8.5064,467,1.5065
8.5107,431,1.3903
8.5149,473,1.5258
8.5193,529,1.7065
8.5236,507,1.6355
8.5279,440,1.4194
8.5322,439,1.4161
8.5365,511,1.6484
8.5408,541,1.7452
8.5451,494,1.5935
8.5494,447,1.4419
8.5537,473,1.5258
8.5580,537,1.7323
8.5623,542,1.7484
8.5666,484,1.5613
8.5708,453,1.4613
8.5751,510,1.6452
8.5794,590,1.9032
8.5838,619,1.9968
8.5881,627,2.0226
8.5923,716,2.3097
8.5966,866,2.7935
8.6009,921,2.9710
8.6051,830,2.6774
8.6093,667,2.1516
8.6136,587,1.8935
8.6179,589,1.9000
8.6222,569,1.8355
8.6265,499,1.6097
8.6308,461,1.4871
8.6351,515,1.6613
8.6394,585,1.8871
8.6437,568,1.8323
8.6481,508,1.6387
8.6524,512,1.6516
8.6567,569,1.8355
8.6610,587,1.8935
8.6653,534,1.7226
8.6696,488,1.5742
8.6739,518,1.6710
8.6782,581,1.8742
8.6825,577,1.8613
8.6868,509,1.6419
8.6911,481,1.5516
8.6954,528,1.7032
8.6997,574,1.8516
8.7040,541,1.7452
8.7083,486,1.5677
8.7126,505,1.6290
8.7169,579,1.8677
8.7212,603,1.9452
8.7255,550,1.7742
8.7299,507,1.6355
8.7341,536,1.7290
8.7384,598,1.9290
8.7428,586,1.8903
8.7471,517,1.6677
8.7514,500,1.6129
8.7557,560,1.8065
8.7600,603,1.9452
8.7643,562,1.8129
8.7686,506,1.6323
8.7729,519,1.6742
8.7772,577,1.8613
8.7815,587,1.8935
8.7858,526,1.6968
8.7902,491,1.5839
8.7945,529,1.7065
8.7988,595,1.9194
8.8031,589,1.9000
8.8074,523,1.6871
8.8117,515,1.6613
8.8160,583,1.8806
8.8203,624,2.0129
8.8247,579,1.8677
8.8290,532,1.7161
8.8333,560,1.8065
8.8376,625,2.0161
8.8419,639,2.0613
8.8462,586,1.8903
8.8505,554,1.7871
8.8548,597,1.9258
8.8591,656,2.1161
8.8634,638,2.0581
8.8678,574,1.8516
8.8721,571,1.8419
8.8764,633,2.0419
8.8807,651,2.1000
8.8850,586,1.8903
8.8893,520,1.6774
8.8936,540,1.7419
8.8980,595,1.9194
8.9023,590,1.9032
8.9066,521,1.6806
8.9110,491,1.5839
8.9153,539,1.7387
8.9196,588,1.8968
8.9239,559,1.8032
8.9282,491,1.5839
8.9325,495,1.5968
8.9368,558,1.8000
8.9411,568,1.8323
8.9454,500,1.6129
8.9497,446,1.4387
8.9540,480,1.5484
8.9583,535,1.7258
8.9626,520,1.6774
8.9670,453,1.4613
8.9713,431,1.3903
8.9756,487,1.5710
8.9799,528,1.7032
8.9842,490,1.5806
8.9885,433,1.3968
8.9928,453,1.4613
8.9971,523,1.6871
9.0014,535,1.7258
9.0057,477,1.5387
9.0101,445,1.4355
9.0144,483,1.5581
9.0187,534,1.7226
9.0230,515,1.6613
9.0273,456,1.4710
9.0316,449,1.4484
9.0359,514,1.6581
9.0402,556,1.7935
9.0445,510,1.6452
9.0488,445,1.4355
9.0531,462,1.4903
9.0575,531,1.7129
9.0618,533,1.7194
9.0660,465,1.5000
9.0704,436,1.4065
9.0747,483,1.5581
9.0790,539,1.7387
9.0833,520,1.6774
9.0876,462,1.4903
9.0919,457,1.4742
9.0962,519,1.6742
9.1005,545,1.7581
9.1048,493,1.5903
9.1091,440,1.4194
9.1134,466,1.5032
9.1177,529,1.7065
9.1220,528,1.7032
9.1263,466,1.5032
9.1306,448,1.4452
9.1349,500,1.6129
9.1393,547,1.7645
9.1436,518,1.6710
9.1479,456,1.4710
9.1522,458,1.4774
9.1565,527,1.7000
9.1608,552,1.7806
9.1651,492,1.5871
9.1694,436,1.4065
9.1737,465,1.5000
9.1781,529,1.7065
9.1824,519,1.6742
9.1867,459,1.4806
9.1910,450,1.4516
9.1953,507,1.6355
9.1996,547,1.7645
9.2040,506,1.6323
9.2082,443,1.4290
9.2125,454,1.4645
9.2169,524,1.6903
9.2212,543,1.7516
9.2255,480,1.5484
9.2298,439,1.4161
9.2341,482,1.5548
9.2384,541,1.7452
9.2427,525,1.6935
9.2470,453,1.4613
9.2513,440,1.4194
9.2556,497,1.6032
9.2599,537,1.7323
9.2642,498,1.6065
9.2685,438,1.4129
9.2728,452,1.4581
9.2771,523,1.6871
9.2814,536,1.7290
9.2861,467,1.5065
9.2904,443,1.4290
9.2947,501,1.6161
9.2990,555,1.7903
9.3034,520,1.6774
9.3077,457,1.4742
9.3120,468,1.5097
9.3163,533,1.7194
9.3206,560,1.8065
9.3249,516,1.6645
9.3293,475,1.5323
9.3336,508,1.6387
9.3379,583,1.8806
9.3422,594,1.9161
9.3465,533,1.7194
9.3508,517,1.6677
9.3551,570,1.8387
9.3594,604,1.9484
9.3637,552,1.7806
9.3681,492,1.5871
9.3723,507,1.6355
9.3766,564,1.8194
9.3809,577,1.8613
9.3853,527,1.7000
9.3896,492,1.5871
9.3939,542,1.7484
9.3982,611,1.9710
9.4026,599,1.9323
9.4070,526,1.6968
9.4113,511,1.6484
9.4156,566,1.8258
9.4199,601,1.9387
9.4242,552,1.7806
9.4285,491,1.5839
9.4328,512,1.6516
9.4371,585,1.8871
9.4414,604,1.9484
9.4456,545,1.7581
9.4500,500,1.6129
9.4542,541,1.7452
9.4585,616,1.9871
9.4629,638,2.0581
9.4672,624,2.0129
9.4715,704,2.2710
9.4758,866,2.7935
9.4801,939,3.0290
9.4843,858,2.7677
9.4886,704,2.2710
9.4930,617,1.9903
9.4973,613,1.9774
9.5016,580,1.8710
9.5058,496,1.6000
9.5100,447,1.4419
9.5142,486,1.5677
9.5184,556,1.7935
9.5226,554,1.7871
9.5268,503,1.6226
9.5310,498,1.6065
9.5352,553,1.7839
9.5394,584,1.8839
9.5437,552,1.7806
9.5479,496,1.6000
9.5521,495,1.5968
9.5564,547,1.7645
9.5607,560,1.8065
9.5652,501,1.6161
9.5697,459,1.4806
9.5742,500,1.6129
9.5786,549,1.7710
9.5829,517,1.6677
9.5874,449,1.4484
9.5917,456,1.4710
9.5961,531,1.7129
9.6005,553,1.7839
9.6050,504,1.6258
9.6094,473,1.5258
9.6139,517,1.6677
9.6183,572,1.8452
9.6228,547,1.7645
9.6272,485,1.5645
9.6317,485,1.5645
9.6362,552,1.7806
9.6405,579,1.8677
9.6449,525,1.6935
9.6494,477,1.5387
9.6537,518,1.6710
9.6582,585,1.8871
9.6625,564,1.8194
9.6669,491,1.5839
9.6713,489,1.5774
9.6757,560,1.8065
9.6801,595,1.9194
9.6844,549,1.7710
9.6888,509,1.6419
9.6931,539,1.7387
9.6975,602,1.9419
9.7018,603,1.9452
9.7061,544,1.7548
9.7105,526,1.6968
9.7149,584,1.8839
9.7193,632,2.0387
9.7237,596,1.9226
9.7280,538,1.7355
9.7324,557,1.7968
9.7367,624,2.0129
9.7410,629,2.0290
9.7454,561,1.8097
9.7498,524,1.6903
9.7542,567,1.8290
9.7585,611,1.9710
9.7629,575,1.8548
9.7673,499,1.6097
9.7716,491,1.5839
9.7760,539,1.7387
9.7804,548,1.7677
9.7847,487,1.5710
9.7891,434,1.4000
9.7934,465,1.5000
9.7978,525,1.6935
9.8022,509,1.6419
9.8065,438,1.4129
9.8109,429,1.3839
9.8152,490,1.5806
9.8196,524,1.6903
9.8240,476,1.5355
9.8284,418,1.3484
9.8328,444,1.4323
9.8371,508,1.6387
9.8414,509,1.6419
9.8457,453,1.4613
9.8501,432,1.3935
9.8544,488,1.5742
9.8588,545,1.7581
9.8632,525,1.6935
9.8675,464,1.4968
9.8719,473,1.5258
9.8762,542,1.7484
9.8806,563,1.8161
9.8851,505,1.6290
9.8894,469,1.5129
9.8938,523,1.6871
9.8981,585,1.8871
9.9025,565,1.8226
9.9069,507,1.6355
9.9113,509,1.6419
9.9156,565,1.8226
9.9200,587,1.8935
9.9244,538,1.7355
9.9287,491,1.5839
9.9330,523,1.6871
9.9374,591,1.9065
9.9417,587,1.8935
9.9460,515,1.6613
9.9504,493,1.5903
9.9548,547,1.7645
9.9591,589,1.9000
9.9635,547,1.7645
9.9679,495,1.5968
9.9724,519,1.6742
9.9768,578,1.8645
9.9812,576,1.8581
9.9855,513,1.6548
9.9899,486,1.5677
9.9942,535,1.7258
9.9986,588,1.8968
10.0034,554,1.7871
10.0157,567,1.8290
10.0202,587,1.8935
10.0246,525,1.6935
10.0290,477,1.5387
10.0334,515,1.6613
10.0378,571,1.8419
10.0421,554,1.7871
10.0465,490,1.5806
10.0509,490,1.5806
10.0552,549,1.7710
10.0596,579,1.8677
10.0640,536,1.7290
10.0684,488,1.5742
10.0727,512,1.6516
10.0771,571,1.8419
10.0815,568,1.8323
10.0859,498,1.6065
10.0902,473,1.5258
10.0946,527,1.7000
10.0989,569,1.8355
10.1033,524,1.6903
10.1077,456,1.4710
10.1121,470,1.5161
10.1164,535,1.7258
10.1208,534,1.7226
10.1252,462,1.4903
10.1296,421,1.3581
10.1340,458,1.4774
10.1384,506,1.6323
10.1428,485,1.5645
10.1471,421,1.3581
10.1515,420,1.3548
10.1559,487,1.5710
10.1602,513,1.6548
10.1646,455,1.4677
10.1690,409,1.3194
10.1734,449,1.4484
10.1778,504,1.6258
10.1821,474,1.5290
10.1865,401,1.2935
10.1909,394,1.2710
10.1952,454,1.4645
10.1995,484,1.5613
10.2039,439,1.4161
10.2083,392,1.2645
10.2127,419,1.3516
10.2170,482,1.5548
10.2213,484,1.5613
10.2257,419,1.3516
10.2301,394,1.2710
10.2345,435,1.4032
10.2389,468,1.5097
10.2432,423,1.3645
10.2476,359,1.1581
10.2520,370,1.1935
10.2563,437,1.4097
10.2607,449,1.4484
10.2651,390,1.2581
10.2695,366,1.1806
10.2740,418,1.3484
10.2783,462,1.4903
10.2828,423,1.3645
10.2872,357,1.1516
10.2916,365,1.1774
10.2959,432,1.3935
10.3003,457,1.4742
10.3046,406,1.3097
10.3090,364,1.1742
10.3134,402,1.2968
10.3178,454,1.4645
10.3222,427,1.3774
10.3266,366,1.1806
10.3309,392,1.2645
10.3352,500,1.6129
10.3396,583,1.8806
10.3439,605,1.9516
10.3483,644,2.0774
10.3526,694,2.2387
10.3570,710,2.2903
10.3613,613,1.9774
10.3657,454,1.4645
10.3700,381,1.2290
10.3744,411,1.3258
10.3787,442,1.4258
10.3830,395,1.2742
10.3873,323,1.0419
10.3917,337,1.0871
10.3960,415,1.3387
10.4003,437,1.4097
10.4046,380,1.2258
10.4090,343,1.1065
10.4133,385,1.2419
10.4176,441,1.4226
10.4220,424,1.3677
10.4263,361,1.1645
10.4307,351,1.1323
10.4351,416,1.3419
10.4394,454,1.4645
10.4437,417,1.3452
10.4481,367,1.1839
10.4524,396,1.2774
10.4568,467,1.5065
10.4611,467,1.5065
10.4654,403,1.3000
10.4697,384,1.2387
10.4741,446,1.4387
10.4784,498,1.6065
10.4828,468,1.5097
10.4871,409,1.3194
10.4915,421,1.3581
10.4958,493,1.5903
10.5002,519,1.6742
10.5045,464,1.4968
10.5088,418,1.3484
10.5132,455,1.4677
10.5175,518,1.6710
10.5219,501,1.6161
10.5262,432,1.3935
10.5305,423,1.3645
10.5348,484,1.5613
10.5392,516,1.6645
10.5436,468,1.5097
10.5478,419,1.3516
10.5522,446,1.4387
10.5565,516,1.6645
10.5609,529,1.7065
10.5652,478,1.5419
10.5695,457,1.4742
10.5739,509,1.6419
10.5782,567,1.8290
10.5826,542,1.7484
10.5869,483,1.5581
10.5913,494,1.5935
10.5956,569,1.8355
10.6000,594,1.9161
10.6043,544,1.7548
10.6087,519,1.6742
10.6130,569,1.8355
10.6173,630,2.0323
10.6217,613,1.9774
10.6260,547,1.7645
10.6303,536,1.7290
10.6347,593,1.9129
10.6390,629,2.0290
10.6434,591,1.9065
10.6477,544,1.7548
10.6520,567,1.8290
10.6564,631,2.0355
10.6609,623,2.0097
10.6653,546,1.7613
10.6698,520,1.6774
10.6742,576,1.8581
10.6787,618,1.9935
10.6831,572,1.8452
10.6876,512,1.6516
10.6920,536,1.7290
10.6963,600,1.9355
10.7007,597,1.9258
10.7051,532,1.7161
10.7096,506,1.6323
10.7140,558,1.8000
10.7184,607,1.9581
10.7229,575,1.8548
10.7274,520,1.6774
10.7318,541,1.7452
10.7363,610,1.9677
10.7407,621,2.0032
10.7451,559,1.8032
10.7495,531,1.7129
10.7538,582,1.8774
10.7582,635,2.0484
10.7626,603,1.9452
10.7670,544,1.7548
10.7714,558,1.8000
10.7757,623,2.0097
10.7801,635,2.0484
10.7844,573,1.8484
10.7888,539,1.7387
10.7932,584,1.8839
10.7975,641,2.0677
10.8019,620,2.0000
10.8063,557,1.7968
10.8106,553,1.7839
10.8150,619,1.9968
10.8194,648,2.0903
10.8238,594,1.9161
10.8281,548,1.7677
10.8325,585,1.8871
10.8369,653,2.1065
10.8412,643,2.0742
10.8456,570,1.8387
10.8500,554,1.7871
10.8544,617,1.9903
10.8588,654,2.1097
10.8631,615,1.9839
10.8675,560,1.8065
10.8718,580,1.8710
10.8762,640,2.0645
10.8806,644,2.0774
10.8852,576,1.8581
10.8895,552,1.7806
10.8939,609,1.9645
10.8983,657,2.1194
10.9026,627,2.0226
10.9069,560,1.8065
10.9113,570,1.8387
10.9156,636,2.0516
10.9199,646,2.0839
10.9243,584,1.8839
10.9287,550,1.7742
10.9330,598,1.9290
10.9374,657,2.1194
10.9418,634,2.0452
10.9461,573,1.8484
10.9504,565,1.8226
10.9548,621,2.0032
10.9592,650,2.0968
10.9636,601,1.9387
10.9680,548,1.7677
10.9723,579,1.8677
10.9767,639,2.0613
10.9810,635,2.0484
10.9853,572,1.8452
10.9897,557,1.7968
10.9941,621,2.0032
10.9984,668,2.1548
11.0028,634,2.0452
11.0071,581,1.8742
11.0115,605,1.9516
11.0159,666,2.1484
11.0203,668,2.1548
11.0246,606,1.9548
11.0290,578,1.8645
11.0334,624,2.0129
11.0378,674,2.1742
11.0421,644,2.0774
11.0464,577,1.8613
11.0508,583,1.8806
11.0552,661,2.1323
11.0596,687,2.2161
11.0639,620,2.0000
11.0683,571,1.8419
11.0727,607,1.9581
11.0771,667,2.1516
11.0815,643,2.0742
11.0859,578,1.8645
11.0903,575,1.8548
11.0948,635,2.0484
11.0992,660,2.1290
11.1036,619,1.9968
11.1080,584,1.8839
11.1125,622,2.0065
11.1175,689,2.2226
11.1220,659,2.1258
11.1264,595,1.9194
11.1308,592,1.9097
11.1352,652,2.1032
11.1396,669,2.1581
11.1441,613,1.9774
11.1485,570,1.8387
11.1530,607,1.9581
11.1574,670,2.1613
11.1619,675,2.1774
11.1663,659,2.1258
11.1707,727,2.3452
11.1751,875,2.8226
11.1795,964,3.1097
11.1840,903,2.9129
11.1884,788,2.5419
11.1928,717,2.3129
11.1972,693,2.2355
11.2017,632,2.0387
11.2060,545,1.7581
11.2105,528,1.7032
11.2149,575,1.8548
11.2194,586,1.8903
11.2238,534,1.7226
11.2282,510,1.6452
11.2326,557,1.7968
11.2371,618,1.9935
11.2415,597,1.9258
11.2459,530,1.7097
11.2503,527,1.7000
11.2547,595,1.9194
11.2591,626,2.0194
11.2634,574,1.8516
11.2678,527,1.7000
11.2721,557,1.7968
11.2764,620,2.0000
11.2808,616,1.9871
11.2851,557,1.7968
11.2895,547,1.7645
11.2938,606,1.9548
11.2982,647,2.0871
11.3026,610,1.9677
11.3069,555,1.7903
11.3112,566,1.8258
11.3155,625,2.0161
11.3198,636,2.0516
11.3242,579,1.8677
11.3285,549,1.7710
11.3329,594,1.9161
11.3372,645,2.0806
11.3415,615,1.9839
11.3459,546,1.7613
11.3504,553,1.7839
11.3548,618,1.9935
11.3592,635,2.0484
11.3637,579,1.8677
11.3681,543,1.7516
11.3725,588,1.8968
11.3769,647,2.0871
11.3814,628,2.0258
11.3858,569,1.8355
11.3902,575,1.8548
11.3946,640,2.0645
11.3990,671,2.1645
11.4034,624,2.0129
11.4077,574,1.8516
11.4120,604,1.9484
11.4163,665,2.1452
11.4208,652,2.1032
11.4253,587,1.8935
11.4297,577,1.8613
11.4347,645,2.0806
11.4408,652,2.1032
11.4452,586,1.8903
11.4497,557,1.7968
11.4541,600,1.9355
11.4584,625,2.0161
11.4628,567,1.8290
11.4672,508,1.6387
11.4717,534,1.7226
11.4760,600,1.9355
11.4805,594,1.9161
11.4849,533,1.7194
11.4894,521,1.6806
11.4939,587,1.8935
11.4983,624,2.0129
11.5026,583,1.8806
11.5070,531,1.7129
11.5114,557,1.7968
11.5159,620,2.0000
11.5204,613,1.9774
11.5248,546,1.7613
11.5293,526,1.6968
11.5338,581,1.8742
11.5382,620,2.0000
11.5426,571,1.8419
11.5471,513,1.6548
11.5515,531,1.7129
11.5559,594,1.9161
11.5603,590,1.9032
11.5647,525,1.6935
11.5691,500,1.6129
11.5736,550,1.7742
11.5780,588,1.8968
11.5824,544,1.7548
11.5869,497,1.6032
11.5913,525,1.6935
11.5958,590,1.9032
11.6003,581,1.8742
11.6048,512,1.6516
11.6093,498,1.6065
11.6138,556,1.7935
11.6182,588,1.8968
11.6226,547,1.7645
11.6269,494,1.5935
11.6313,507,1.6355
11.6357,562,1.8129
11.6401,558,1.8000
11.6444,493,1.5903
11.6488,465,1.5000
11.6532,515,1.6613
11.6575,560,1.8065
11.6619,521,1.6806
11.6663,455,1.4677
11.6707,474,1.5290
11.6751,552,1.7806
11.6794,568,1.8323
11.6838,511,1.6484
11.6881,479,1.5452
11.6925,522,1.6839
11.6969,571,1.8419
11.7012,548,1.7677
11.7056,478,1.5419
11.7099,469,1.5129
11.7143,532,1.7161
11.7187,574,1.8516
11.7231,545,1.7581
11.7275,508,1.6387
11.7318,538,1.7355
11.7362,586,1.8903
11.7406,566,1.8258
11.7449,494,1.5935
11.7494,486,1.5677
11.7537,552,1.7806
11.7581,592,1.9097
11.7624,552,1.7806
11.7668,501,1.6161
11.7711,520,1.6774
11.7755,573,1.8484
11.7799,562,1.8129
11.7842,494,1.5935
11.7886,469,1.5129
11.7930,519,1.6742
11.7973,570,1.8387
11.8018,533,1.7194
11.8061,459,1.4806
11.8104,463,1.4935
11.8148,532,1.7161
11.8192,546,1.7613
11.8236,483,1.5581
11.8279,441,1.4226
11.8323,478,1.5419
11.8366,525,1.6935
11.8409,503,1.6226
11.8453,439,1.4161
11.8496,434,1.4000
11.8540,491,1.5839
11.8583,515,1.6613
11.8627,460,1.4839
11.8670,389,1.2548
11.8713,382,1.2323
11.8757,417,1.3452
11.8801,396,1.2774
11.8844,318,1.0258
11.8888,293,0.9452
11.8932,355,1.1452
11.8976,403,1.3000
11.9020,359,1.1581
11.9063,299,0.9645
11.9106,313,1.0097
11.9150,385,1.2419
11.9194,396,1.2774
11.9238,330,1.0645
11.9282,288,0.9290
11.9325,327,1.0548
11.9369,378,1.2194
11.9412,353,1.1387
11.9456,285,0.9194
11.9500,282,0.9097
11.9545,347,1.1194
11.9589,370,1.1935
11.9633,307,0.9903
11.9677,257,0.8290
11.9721,299,0.9645
11.9765,367,1.1839
11.9810,351,1.1323
11.9854,281,0.9065
11.9899,277,0.8935
11.9943,343,1.1065
11.9987,366,1.1806
12.0031,308,0.9935
12.0075,261,0.8419
12.0119,306,0.9871
12.0164,399,1.2871
12.0209,436,1.4065
12.0253,443,1.4290
12.0297,524,1.6903
12.0341,679,2.1903
12.0385,740,2.3871
12.0429,637,2.0548
12.0473,460,1.4839
12.0518,380,1.2258
12.0562,384,1.2387
12.0606,346,1.1161
12.0649,258,0.8323
12.0694,233,0.7516
12.0739,306,0.9871
12.0783,363,1.1710
12.0828,331,1.0677
12.0872,292,0.9419
12.0916,334,1.0774
12.0961,412,1.3290
12.1004,415,1.3387
12.1048,365,1.1774
12.1093,371,1.1968
12.1137,445,1.4355
12.1180,472,1.5226
12.1223,422,1.3613
12.1266,371,1.1968
12.1310,398,1.2839
12.1353,466,1.5032
12.1397,467,1.5065
12.1440,396,1.2774
12.1484,360,1.1613
12.1527,414,1.3355
12.1571,478,1.5419
12.1614,462,1.4903
12.1657,412,1.3290
12.1700,428,1.3806
12.1744,505,1.6290
12.1787,539,1.7387
12.1831,489,1.5774
12.1875,450,1.4516
12.1919,487,1.5710
12.1963,557,1.7968
12.2006,556,1.7935
12.2050,497,1.6032
12.2095,483,1.5581
12.2138,536,1.7290
12.2182,566,1.8258
12.2226,513,1.6548
12.2269,457,1.4742
12.2313,492,1.5871
12.2356,562,1.8129
12.2400,553,1.7839
12.2443,486,1.5677
12.2487,469,1.5129
12.2531,531,1.7129
12.2574,578,1.8645
12.2618,550,1.7742
12.2661,494,1.5935
12.2705,502,1.6194
12.2749,568,1.8323
12.2794,587,1.8935
12.2837,534,1.7226
12.2881,512,1.6516
12.2925,572,1.8452
12.2969,631,2.0355
12.3012,603,1.9452
12.3056,532,1.7161
12.3099,529,1.7065
12.3143,590,1.9032
12.3186,604,1.9484
12.3230,545,1.7581
12.3274,506,1.6323
12.3318,548,1.7677
12.3361,609,1.9645
12.3405,597,1.9258
12.3449,532,1.7161
12.3492,518,1.6710
12.3536,572,1.8452
12.3580,609,1.9645
12.3623,568,1.8323
12.3667,510,1.6452
12.3711,527,1.7000
12.3755,593,1.9129
12.3798,593,1.9129
12.3842,521,1.6806
12.3887,502,1.6194
12.3931,569,1.8355
12.3974,623,2.0097
12.4018,592,1.9097
12.4062,537,1.7323
12.4105,548,1.7677
12.4148,611,1.9710
12.4192,623,2.0097
12.4236,558,1.8000
12.4279,518,1.6710
12.4323,566,1.8258
12.4366,629,2.0290
12.4410,611,1.9710
12.4453,542,1.7484
12.4497,541,1.7452
12.4541,608,1.9613
12.4584,639,2.0613
12.4628,580,1.8710
12.4672,530,1.7097
12.4716,564,1.8194
12.4760,620,2.0000
12.4803,606,1.9548
12.4847,544,1.7548
12.4891,533,1.7194
12.4934,584,1.8839
12.4978,618,1.9935
12.5021,572,1.8452
12.5065,509,1.6419
12.5109,530,1.7097
12.5152,604,1.9484
12.5195,608,1.9613
12.5239,541,1.7452
12.5283,512,1.6516
12.5327,568,1.8323
12.5370,622,2.0065
12.5414,589,1.9000
12.5457,534,1.7226
12.5501,552,1.7806
12.5544,622,2.0065
12.5588,639,2.0613
12.5632,581,1.8742
12.5675,544,1.7548
12.5718,600,1.9355
12.5762,688,2.2194
12.5806,693,2.2355
12.5849,630,2.0323
12.5893,617,1.9903
12.5937,681,2.1968
12.5981,717,2.3129
12.6024,663,2.1387
12.6068,612,1.9742
12.6111,641,2.0677
12.6155,701,2.2613
12.6199,699,2.2548
12.6243,636,2.0516
12.6287,625,2.0161
12.6330,682,2.2000
12.6373,726,2.3419
12.6417,690,2.2258
12.6460,630,2.0323
12.6503,639,2.0613
12.6545,700,2.2581
12.6587,708,2.2839
12.6629,647,2.0871
12.6671,597,1.9258
12.6713,628,2.0258
12.6755,697,2.2484
12.6796,708,2.2839
12.6838,647,2.0871
12.6880,617,1.9903
12.6922,665,2.1452
12.6964,726,2.3419
12.7006,707,2.2806
12.7049,632,2.0387
12.7092,622,2.0065
12.7134,688,2.2194
12.7176,729,2.3516
12.7219,686,2.2129
12.7262,626,2.0194
12.7305,634,2.0452
12.7348,691,2.2290
12.7391,704,2.2710
12.7434,652,2.1032
12.7477,614,1.9806
12.7519,648,2.0903
12.7561,701,2.2613
12.7603,680,2.1935
12.7644,610,1.9677
12.7686,592,1.9097
12.7728,646,2.0839
12.7770,687,2.2161
12.7812,658,2.1226
12.7853,599,1.9323
12.7895,601,1.9387
12.7937,672,2.1677
12.7979,706,2.2774
12.8020,654,2.1097
12.8062,588,1.8968
12.8104,600,1.9355
12.8146,662,2.1355
12.8188,677,2.1839
12.8229,628,2.0258
12.8271,581,1.8742
12.8313,601,1.9387
12.8355,656,2.1161
12.8396,653,2.1065
12.8438,587,1.8935
12.8480,569,1.8355
12.8522,624,2.0129
12.8564,677,2.1839
12.8605,659,2.1258
12.8647,596,1.9226
12.8689,576,1.8581
12.8731,627,2.0226
12.8773,666,2.1484
12.8814,628,2.0258
12.8856,567,1.8290
12.8898,570,1.8387
12.8940,632,2.0387
12.8981,649,2.0935
12.9023,608,1.9613
12.9068,590,1.9032
12.9110,674,2.1742
12.9152,802,2.5871
12.9194,888,2.8645
12.9236,876,2.8258
12.9278,818,2.6387
12.9320,784,2.5290
12.9361,736,2.3742
12.9403,641,2.0677
12.9445,537,1.7323
12.9487,499,1.6097
12.9529,537,1.7323
12.9570,574,1.8516
12.9612,551,1.7774
12.9654,504,1.6258
12.9696,524,1.6903
12.9738,600,1.9355
12.9779,629,2.0290
12.9821,579,1.8677
12.9863,522,1.6839
12.9905,540,1.7419
12.9946,599,1.9323
12.9988,604,1.9484
13.0031,547,1.7645
13.0073,503,1.6226
13.0115,538,1.7355
13.0157,597,1.9258
13.0198,587,1.8935
13.0240,520,1.6774
13.0282,501,1.6161
13.0324,552,1.7806
13.0366,601,1.9387
13.0407,578,1.8645
13.0449,519,1.6742
13.0491,516,1.6645
13.0533,580,1.8710
13.0575,619,1.9968
13.0617,570,1.8387
13.0658,511,1.6484
13.0700,525,1.6935
13.0742,586,1.8903
13.0784,600,1.9355
13.0826,550,1.7742
13.0867,510,1.6452
13.0909,540,1.7419
13.0951,614,1.9806
13.0993,625,2.0161
13.1034,567,1.8290
13.1076,540,1.7419
13.1118,588,1.8968
13.1160,644,2.0774
13.1202,632,2.0387
13.1243,579,1.8677
13.1285,573,1.8484
13.1327,632,2.0387
13.1369,686,2.2129
13.1411,664,2.1419
13.1452,606,1.9548
13.1494,609,1.9645
13.1536,671,2.1645
13.1578,695,2.2419
13.1620,647,2.0871
13.1661,600,1.9355
13.1703,617,1.9903
13.1745,677,2.1839
13.1787,684,2.2065
13.1828,613,1.9774
13.1870,560,1.8065
13.1912,586,1.8903
13.1954,635,2.0484
13.1996,614,1.9806
13.2038,539,1.7387
13.2079,507,1.6355
13.2121,542,1.7484
13.2163,571,1.8419
13.2205,529,1.7065
13.2246,443,1.4290
13.2288,420,1.3548
13.2330,478,1.5419
13.2372,512,1.6516
13.2414,468,1.5097
13.2455,407,1.3129
13.2497,415,1.3387
13.2539,476,1.5355
13.2581,497,1.6032
13.2623,440,1.4194
13.2664,381,1.2290
13.2706,401,1.2935
13.2748,474,1.5290
13.2790,487,1.5710
13.2831,423,1.3645
13.2874,384,1.2387
13.2916,420,1.3548
13.2958,474,1.5290
13.3000,460,1.4839
13.3042,398,1.2839
13.3084,382,1.2323
13.3127,434,1.4000
13.3169,476,1.5355
13.3211,437,1.4097
13.3253,376,1.2129
13.3295,391,1.2613
13.3336,461,1.4871
13.3378,487,1.5710
13.3420,439,1.4161
13.3462,393,1.2677
13.3504,420,1.3548
13.3545,492,1.5871
13.3587,504,1.6258
13.3629,436,1.4065
13.3671,389,1.2548
13.3713,422,1.3613
13.3754,478,1.5419
13.3796,463,1.4935
13.3838,406,1.3097
13.3880,397,1.2806
13.3921,451,1.4548
13.3963,507,1.6355
13.4005,481,1.5516
13.4047,406,1.3097
13.4089,398,1.2839
13.4131,461,1.4871
13.4173,498,1.6065
13.4216,451,1.4548
13.4259,392,1.2645
13.4302,411,1.3258
13.4345,476,1.5355
13.4388,490,1.5806
13.4431,429,1.3839
13.4474,396,1.2774
13.4517,447,1.4419
13.4562,514,1.6581
13.4606,496,1.6000
13.4649,430,1.3871
13.4692,425,1.3710
13.4735,495,1.5968
13.4778,523,1.6871
13.4821,465,1.5000
13.4864,412,1.3290
13.4907,440,1.4194
13.4950,501,1.6161
13.4993,495,1.5968
13.5036,427,1.3774
13.5079,399,1.2871
13.5122,451,1.4548
13.5165,517,1.6677
13.5208,504,1.6258
13.5252,442,1.4258
13.5294,447,1.4419
13.5337,517,1.6677
13.5380,541,1.7452
13.5424,479,1.5452
13.5467,436,1.4065
13.5510,481,1.5516
13.5553,550,1.7742
13.5596,542,1.7484
13.5639,486,1.5677
13.5682,473,1.5258
13.5725,526,1.6968
13.5768,569,1.8355
13.5811,534,1.7226
13.5854,468,1.5097
13.5897,483,1.5581
13.5940,557,1.7968
13.5983,584,1.8839
13.6039,516,1.6645
13.6083,501,1.6161
13.6127,559,1.8032
13.6170,599,1.9323
13.6213,552,1.7806
13.6257,497,1.6032
13.6300,525,1.6935
13.6343,601,1.9387
13.6386,606,1.9548
13.6429,531,1.7129
13.6472,486,1.5677
13.6515,527,1.7000
13.6558,580,1.8710
13.6602,552,1.7806
13.6645,467,1.5065
13.6688,428,1.3806
13.6731,460,1.4839
13.6773,475,1.5323
13.6816,410,1.3226
13.6859,343,1.1065
13.6901,361,1.1645
13.6944,428,1.3806
13.6987,428,1.3806
13.7030,355,1.1452
13.7072,327,1.0548
13.7115,378,1.2194
13.7158,437,1.4097
13.7202,415,1.3387
13.7245,344,1.1097
13.7288,332,1.0710
13.7330,395,1.2742
13.7373,439,1.4161
13.7416,387,1.2484
13.7460,320,1.0323
13.7504,346,1.1161
13.7547,439,1.4161
13.7590,476,1.5355
13.7633,460,1.4839
13.7676,504,1.6258
13.7719,645,2.0806
13.7762,769,2.4806
13.7805,754,2.4323
13.7848,633,2.0419
13.7891,535,1.7258
13.7934,518,1.6710
13.7977,506,1.6323
13.8020,429,1.3839
13.8063,355,1.1452
13.8105,374,1.2065
13.8149,446,1.4387
13.8193,451,1.4548
13.8236,390,1.2581
13.8279,383,1.2355
13.8322,455,1.4677
13.8365,504,1.6258
13.8407,476,1.5355
13.8450,423,1.3645
13.8494,442,1.4258
13.8536,510,1.6452
13.8579,530,1.7097
13.8621,478,1.5419
13.8664,433,1.3968
13.8707,471,1.5194
13.8749,542,1.7484
13.8792,535,1.7258
13.8835,466,1.5032
13.8878,450,1.4516
13.8920,517,1.6677
13.8963,565,1.8226
13.9006,531,1.7129
13.9062,452,1.4581
13.9107,491,1.5839
13.9150,560,1.8065
13.9193,552,1.7806
13.9237,487,1.5710
13.9280,472,1.5226
13.9323,530,1.7097
13.9366,582,1.8774
13.9409,556,1.7935
13.9452,495,1.5968
13.9495,505,1.6290
13.9538,581,1.8742
13.9581,604,1.9484
13.9624,539,1.7387
13.9667,497,1.6032
13.9710,544,1.7548
13.9753,617,1.9903
13.9796,602,1.9419
13.9839,536,1.7290
13.9885,530,1.7097
13.9928,594,1.9161
13.9971,635,2.0484
14.0014,600,1.9355
14.0057,550,1.7742
14.0100,567,1.8290
14.0143,634,2.0452
14.0186,640,2.0645
14.0229,576,1.8581
14.0272,551,1.7774
14.0315,614,1.9806
14.0359,678,2.1871
14.0402,657,2.1194
14.0444,593,1.9129
14.0487,599,1.9323
14.0532,675,2.1774
14.0576,693,2.2355
14.0619,629,2.0290
14.0662,572,1.8452
14.0705,589,1.9000
14.0748,633,2.0419
14.0791,615,1.9839
14.0834,540,1.7419
14.0877,513,1.6548
14.0920,586,1.8903
14.0963,652,2.1032
14.1006,628,2.0258
14.1049,567,1.8290
14.1093,569,1.8355
14.1136,638,2.0581
14.1179,657,2.1194
14.1222,601,1.9387
14.1265,567,1.8290
14.1308,607,1.9581
14.1351,673,2.1710
14.1395,661,2.1323
14.1438,591,1.9065
14.1481,574,1.8516
14.1525,641,2.0677
14.1569,687,2.2161
14.1612,649,2.0935
14.1655,588,1.8968
14.1698,608,1.9613
14.1741,679,2.1903
14.1784,694,2.2387
14.1827,633,2.0419
14.1870,613,1.9774
14.1913,667,2.1516
14.1956,726,2.3419
14.1999,705,2.2742
14.2045,631,2.0355
14.2088,623,2.0097
14.2131,685,2.2097
14.2174,716,2.3097
14.2217,669,2.1581
14.2260,622,2.0065
14.2303,665,2.1452
14.2346,746,2.4065
14.2389,744,2.4000
14.2432,674,2.1742
14.2475,647,2.0871
14.2518,696,2.2452
14.2561,736,2.3742
14.2604,702,2.2645
14.2647,642,2.0710
14.2690,647,2.0871
14.2734,710,2.2903
14.2777,727,2.3452
14.2820,675,2.1774
14.2863,633,2.0419
14.2906,665,2.1452
14.2949,730,2.3548
14.2992,724,2.3355
14.3035,652,2.1032
14.3078,635,2.0484
14.3121,692,2.2323
14.3166,732,2.3613
14.3209,687,2.2161
14.3252,628,2.0258
14.3295,657,2.1194
14.3337,731,2.3581
14.3380,738,2.3806
14.3424,680,2.1935
14.3467,641,2.0677
14.3510,682,2.2000
14.3555,739,2.3839
14.3598,718,2.3161
14.3641,652,2.1032
14.3684,649,2.0935
14.3727,713,2.3000
14.3770,744,2.4000
14.3813,692,2.2323
14.3856,644,2.0774
14.3899,673,2.1710
14.3942,743,2.3968
14.3985,750,2.4194
14.4028,688,2.2194
14.4071,668,2.1548
14.4114,729,2.3516
14.4157,785,2.5323
14.4200,762,2.4581
14.4244,696,2.2452
14.4287,697,2.2484
14.4329,766,2.4710
14.4372,795,2.5645
14.4415,739,2.3839
14.4459,688,2.2194
14.4502,721,2.3258
14.4545,783,2.5258
14.4589,779,2.5129
14.4632,709,2.2871
14.4675,688,2.2194
14.4717,750,2.4194
14.4759,809,2.6097
14.4802,784,2.5290
14.4845,716,2.3097
14.4888,717,2.3129
14.4930,784,2.5290
14.4972,807,2.6032
14.5016,748,2.4129
14.5068,700,2.2581
14.5112,749,2.4161
14.5154,805,2.5968
14.5197,781,2.5194
14.5240,716,2.3097
14.5282,723,2.3323
14.5325,792,2.5548
14.5368,823,2.6548
14.5412,779,2.5129
14.5455,727,2.3452
14.5498,746,2.4065
14.5540,809,2.6097
14.5583,813,2.6226
14.5626,742,2.3935
14.5668,698,2.2516
14.5711,744,2.4000
14.5754,815,2.6290
14.5796,811,2.6161
14.5839,785,2.5323
14.5882,835,2.6935
14.5924,973,3.1387
14.5967,1001,3.2290
14.6010,1000,3.2258
14.6052,999,3.2226
14.6095,991,3.1968
14.6138,953,3.0742
14.6180,862,2.7806
14.6223,734,2.3677
14.6266,663,2.1387
14.6308,691,2.2290
14.6351,741,2.3903
14.6395,721,2.3258
14.6438,669,2.1581
14.6481,681,2.1968
14.6524,752,2.4258
14.6567,781,2.5194
14.6615,717,2.3129
14.6659,671,2.1645
14.6702,702,2.2645
14.6745,764,2.4645
14.6788,760,2.4516
14.6831,691,2.2290
14.6874,661,2.1323
14.6917,711,2.2935
14.6960,759,2.4484
14.7003,719,2.3194
14.7046,648,2.0903
14.7089,652,2.1032
14.7132,719,2.3194
14.7175,734,2.3677
14.7218,676,2.1806
14.7261,629,2.0290
14.7304,652,2.1032
14.7347,675,2.1774
14.7390,621,2.0032
14.7433,524,1.6903
14.7476,493,1.5903
14.7518,558,1.8000
14.7561,618,1.9935
14.7604,589,1.9000
14.7646,513,1.6548
14.7689,502,1.6194
14.7732,551,1.7774
14.7774,560,1.8065
14.7817,502,1.6194
14.7860,458,1.4774
14.7903,490,1.5806
14.7945,545,1.7581
14.7991,532,1.7161
14.8035,467,1.5065
14.8078,451,1.4548
14.8122,512,1.6516
14.8165,547,1.7645
14.8207,500,1.6129
14.8251,433,1.3968
14.8293,445,1.4355
14.8336,517,1.6677
14.8379,523,1.6871
14.8422,455,1.4677
14.8465,428,1.3806
14.8508,476,1.5355
14.8551,532,1.7161
14.8593,518,1.6710
14.8636,457,1.4742
14.8679,447,1.4419
14.8722,514,1.6581
14.8765,559,1.8032
14.8807,512,1.6516
14.8850,428,1.3806
14.8893,414,1.3355
14.8936,453,1.4613
14.8979,442,1.4258
14.9021,369,1.1903
14.9064,338,1.0903
14.9107,392,1.2645
14.9149,451,1.4548
14.9192,421,1.3581
14.9235,340,1.0968
14.9278,323,1.0419
14.9320,381,1.2290
14.9363,417,1.3452
14.9407,372,1.2000
14.9452,311,1.0032
14.9494,332,1.0710
14.9538,398,1.2839
14.9581,399,1.2871
14.9624,337,1.0871
14.9667,310,1.0000
14.9710,358,1.1548
14.9754,402,1.2968
14.9796,368,1.1871
14.9839,302,0.9742
14.9882,310,1.0000
14.9925,388,1.2516
14.9968,435,1.4032
15.0011,409,1.3194
15.0054,385,1.2419
15.0098,447,1.4419
15.0148,551,1.7774
15.0194,551,1.7774
15.0239,502,1.6194
15.0285,529,1.7065
15.0330,627,2.0226
15.0376,662,2.1355
15.0421,612,1.9742
15.0465,588,1.8968
15.0509,644,2.0774
15.0551,705,2.2742
15.0594,681,2.1968
15.0637,607,1.9581
15.0680,603,1.9452
15.0722,667,2.1516
15.0765,696,2.2452
15.0808,645,2.0806
15.0850,588,1.8968
15.0893,605,1.9516
15.0936,668,2.1548
15.0979,638,2.0581
15.1022,504,1.6258
15.1065,410,1.3226
15.1107,419,1.3516
15.1150,454,1.4645
15.1193,414,1.3355
15.1236,330,1.0645
15.1279,311,1.0032
15.1321,358,1.1548
15.1364,366,1.1806
15.1407,289,0.9323
15.1450,209,0.6742
15.1493,208,0.6710
15.1536,250,0.8065
15.1580,236,0.7613
15.1623,148,0.4774
15.1667,94,0.3032
15.1710,123,0.3968
15.1753,165,0.5323
15.1797,134,0.4323
15.1840,59,0.1903
15.1883,50,0.1613
15.1927,114,0.3677
15.1970,143,0.4613
15.2013,92,0.2968
15.2057,56,0.1806
15.2100,108,0.3484
15.2143,192,0.6194
15.2187,200,0.6452
15.2230,142,0.4581
15.2274,130,0.4194
15.2317,192,0.6194
15.2360,232,0.7484
15.2404,188,0.6065
15.2447,124,0.4000
15.2490,141,0.4548
15.2534,216,0.6968
15.2577,238,0.7677
15.2620,177,0.5710
15.2663,146,0.4710
15.2706,202,0.6516
15.2749,268,0.8645
15.2793,261,0.8419
15.2836,210,0.6774
15.2879,222,0.7161
15.2922,302,0.9742
15.2964,356,1.1484
15.3007,324,1.0452
15.3051,276,0.8903
15.3094,301,0.9710
15.3136,375,1.2097
15.3180,394,1.2710
15.3223,348,1.1226
15.3266,342,1.1032
15.3309,417,1.3452
15.3351,483,1.5581
15.3394,455,1.4677
15.3437,390,1.2581
15.3481,395,1.2742
15.3524,459,1.4806
15.3567,484,1.5613
15.3610,438,1.4129
15.3653,390,1.2581
15.3696,414,1.3355
15.3739,482,1.5548
15.3782,490,1.5806
15.3825,427,1.3774
15.3868,405,1.3065
15.3911,453,1.4613
15.3954,481,1.5516
15.3998,399,1.2871
15.4041,263,0.8484
15.4085,221,0.7129
15.4132,273,0.8806
15.4175,293,0.9452
15.4218,262,0.8452
15.4261,260,0.8387
15.4303,331,1.0677
15.4346,402,1.2968
15.4389,391,1.2613
15.4431,322,1.0387
15.4474,309,0.9968
15.4517,400,1.2903
15.4560,501,1.6161
15.4603,549,1.7710
15.4652,618,1.9935
15.4695,695,2.2419
15.4738,724,2.3355
15.4780,614,1.9806
15.4823,435,1.4032
15.4866,339,1.0935
15.4909,345,1.1129
15.4951,369,1.1903
15.4994,336,1.0839
15.5037,284,0.9161
15.5080,307,0.9903
15.5122,392,1.2645
15.5165,436,1.4065
15.5208,389,1.2548
15.5251,334,1.0774
15.5294,369,1.1903
15.5337,448,1.4452
15.5380,459,1.4806
15.5423,397,1.2806
15.5467,392,1.2645
15.5510,465,1.5000
15.5553,519,1.6742
15.5596,489,1.5774
15.5639,428,1.3806
15.5683,438,1.4129
15.5726,510,1.6452
15.5769,535,1.7258
15.5812,487,1.5710
15.5855,456,1.4710
15.5898,504,1.6258
15.5941,579,1.8677
15.5983,583,1.8806
15.6026,523,1.6871
15.6069,531,1.7129
15.6112,634,2.0452
15.6155,712,2.2968
15.6198,690,2.2258
15.6241,640,2.0645
15.6285,665,2.1452
15.6328,735,2.3710
15.6371,764,2.4645
15.6414,723,2.3323
15.6457,695,2.2419
15.6500,744,2.4000
15.6543,820,2.6452
15.6586,813,2.6226
15.6629,745,2.4032
15.6672,733,2.3645
15.6715,797,2.5710
15.6758,838,2.7032
15.6801,794,2.5613
15.6844,739,2.3839
15.6887,755,2.4355
15.6930,820,2.6452
15.6973,827,2.6677
15.7017,768,2.4774
15.7063,735,2.3710
15.7107,780,2.5161
15.7151,829,2.6742
15.7194,793,2.5581
15.7237,725,2.3387
15.7281,725,2.3387
15.7323,790,2.5484
15.7366,812,2.6194
15.7408,755,2.4355
15.7451,699,2.2548
15.7494,722,2.3290
15.7536,780,2.5161
15.7579,767,2.4742
15.7622,690,2.2258
15.7665,649,2.0935
15.7707,682,2.2000
15.7750,718,2.3161
15.7793,689,2.2226
15.7836,627,2.0226
15.7879,624,2.0129
15.7921,692,2.2323
15.7964,719,2.3194
15.8006,656,2.1161
15.8049,597,1.9258
15.8092,620,2.0000
15.8135,675,2.1774
15.8177,668,2.1548
15.8220,604,1.9484
15.8263,578,1.8645
15.8305,626,2.0194
15.8348,678,2.1871
15.8391,659,2.1258
15.8433,590,1.9032
15.8476,583,1.8806
15.8519,647,2.0871
15.8562,680,2.1935
15.8604,637,2.0548
15.8647,593,1.9129
15.8690,634,2.0452
15.8733,712,2.2968
15.8776,716,2.3097
15.8819,646,2.0839
15.8862,620,2.0000
15.8905,669,2.1581
15.8948,717,2.3129
15.8991,697,2.2484
15.9034,626,2.0194
15.9077,615,1.9839
15.9120,670,2.1613
15.9163,695,2.2419
15.9206,637,2.0548
15.9248,580,1.8710
15.9292,607,1.9581
15.9335,669,2.1581
15.9378,667,2.1516
15.9421,594,1.9161
15.9464,561,1.8097
15.9507,605,1.9516
15.9551,642,2.0710
15.9594,603,1.9452
15.9637,531,1.7129
15.9679,518,1.6710
15.9722,579,1.8677
15.9765,608,1.9613
15.9808,554,1.7871
15.9851,498,1.6065
15.9894,526,1.6968
15.9937,593,1.9129
15.9980,584,1.8839
16.0023,520,1.6774
16.0066,503,1.6226
16.0109,565,1.8226
16.0152,604,1.9484
16.0195,565,1.8226
16.0238,507,1.6355
16.0281,515,1.6613
16.0324,566,1.8258
16.0367,577,1.8613
16.0410,522,1.6839
16.0454,482,1.5548
16.0497,521,1.6806
16.0540,587,1.8935
16.0583,581,1.8742
16.0626,515,1.6613
16.0669,505,1.6290
16.0712,564,1.8194
16.0755,600,1.9355
16.0798,552,1.7806
16.0841,495,1.5968
16.0884,518,1.6710
16.0926,583,1.8806
16.0969,600,1.9355
16.1012,546,1.7613
16.1055,507,1.6355
16.1098,543,1.7516
16.1141,605,1.9516
16.1184,586,1.8903
16.1227,513,1.6548
16.1270,497,1.6032
16.1313,557,1.7968
16.1356,585,1.8871
16.1399,531,1.7129
16.1442,471,1.5194
16.1485,488,1.5742
16.1528,548,1.7677
16.1571,552,1.7806
16.1614,491,1.5839
16.1657,456,1.4710
16.1700,494,1.5935
16.1743,549,1.7710
16.1786,536,1.7290
16.1829,469,1.5129
16.1872,452,1.4581
16.1915,508,1.6387
16.1958,536,1.7290
16.2001,485,1.5645
16.2044,427,1.3774
16.2087,446,1.4387
16.2130,510,1.6452
16.2173,519,1.6742
16.2216,455,1.4677
16.2259,414,1.3355
16.2302,445,1.4355
16.2345,493,1.5903
16.2388,472,1.5226
16.2431,409,1.3194
16.2474,410,1.3226
16.2517,493,1.5903
16.2560,539,1.7387
16.2603,487,1.5710
16.2646,427,1.3774
16.2689,445,1.4355
16.2732,512,1.6516
16.2775,513,1.6548
16.2818,456,1.4710
16.2861,435,1.4032
16.2904,485,1.5645
16.2947,534,1.7226
16.2990,513,1.6548
16.3034,452,1.4581
16.3079,451,1.4548
16.3123,505,1.6290
16.3167,514,1.6581
16.3210,451,1.4548
16.3253,413,1.3323
16.3296,488,1.5742
16.3339,612,1.9742
16.3382,684,2.2065
16.3425,701,2.2613
16.3469,715,2.3065
16.3512,723,2.3323
16.3555,645,2.0806
16.3598,496,1.6000
16.3641,371,1.1968
16.3684,347,1.1194
16.3727,388,1.2516
16.3771,388,1.2516
16.3814,334,1.0774
16.3856,316,1.0194
16.3899,383,1.2355
16.3942,453,1.4613
16.3984,430,1.3871
16.4027,360,1.1613
16.4070,355,1.1452
16.4112,420,1.3548
16.4155,452,1.4581
16.4198,405,1.3065
16.4240,353,1.1387
16.4287,383,1.2355
16.4330,447,1.4419
16.4373,451,1.4548
16.4416,397,1.2806
16.4459,371,1.1968
16.4502,420,1.3548
16.4544,480,1.5484
16.4587,466,1.5032
16.4629,410,1.3226
16.4672,411,1.3258
16.4716,475,1.5323
16.4759,503,1.6226
16.4802,450,1.4516
16.4845,403,1.3000
16.4888,432,1.3935
16.4931,491,1.5839
16.4974,488,1.5742
16.5017,425,1.3710
16.5060,400,1.2903
16.5103,450,1.4516
16.5146,501,1.6161
16.5189,482,1.5548
16.5232,419,1.3516
16.5275,422,1.3613
16.5319,492,1.5871
16.5362,520,1.6774
16.5405,465,1.5000
16.5450,426,1.3742
16.5494,472,1.5226
16.5538,539,1.7387
16.5581,529,1.7065
16.5624,470,1.5161
16.5667,461,1.4871
16.5711,518,1.6710
16.5754,552,1.7806
16.5797,509,1.6419
16.5840,460,1.4839
16.5883,481,1.5516
16.5926,548,1.7677
16.5969,560,1.8065
16.6012,502,1.6194
16.6073,486,1.5677
16.6118,554,1.7871
16.6161,578,1.8645
16.6204,525,1.6935
16.6247,472,1.5226
16.6290,498,1.6065
16.6333,557,1.7968
16.6376,539,1.7387
16.6419,464,1.4968
16.6462,443,1.4290
16.6505,500,1.6129
16.6548,545,1.7581
16.6591,512,1.6516
16.6634,463,1.4935
16.6677,484,1.5613
16.6720,545,1.7581
16.6763,558,1.8000
16.6806,501,1.6161
16.6850,456,1.4710
16.6893,487,1.5710
16.6936,545,1.7581
16.6979,539,1.7387
16.7022,475,1.5323
16.7065,464,1.4968
16.7108,523,1.6871
16.7151,561,1.8097
16.7194,517,1.6677
16.7237,463,1.4935
16.7280,475,1.5323
16.7323,533,1.7194
16.7366,544,1.7548
16.7410,485,1.5645
16.7453,453,1.4613
16.7495,492,1.5871
16.7538,548,1.7677
16.7581,542,1.7484
16.7624,484,1.5613
16.7666,473,1.5258
16.7709,531,1.7129
16.7751,565,1.8226
16.7794,517,1.6677
16.7838,457,1.4742
16.7880,475,1.5323
16.7923,542,1.7484
16.7966,552,1.7806
16.8010,495,1.5968
16.8053,461,1.4871
16.8096,499,1.6097
16.8139,553,1.7839
16.8182,539,1.7387
16.8225,473,1.5258
16.8268,458,1.4774
16.8311,518,1.6710
16.8353,547,1.7645
16.8397,495,1.5968
16.8440,437,1.4097
16.8483,456,1.4710
16.8526,517,1.6677
16.8569,516,1.6645
16.8612,449,1.4484
16.8655,412,1.3290
16.8698,458,1.4774
16.8741,509,1.6419
16.8784,491,1.5839
16.8827,436,1.4065
16.8870,436,1.4065
16.8913,504,1.6258
16.8956,535,1.7258
16.8999,481,1.5516
16.9042,425,1.3710
16.9085,455,1.4677
16.9128,523,1.6871
16.9171,523,1.6871
16.9214,468,1.5097
16.9257,448,1.4452
16.9300,499,1.6097
16.9343,547,1.7645
16.9387,520,1.6774
16.9429,460,1.4839
16.9473,465,1.5000
16.9516,538,1.7355
16.9559,568,1.8323
16.9602,514,1.6581
16.9645,463,1.4935
16.9687,490,1.5806
16.9730,552,1.7806
16.9773,539,1.7387
16.9816,468,1.5097
16.9859,449,1.4484
16.9902,505,1.6290
16.9945,551,1.7774
16.9987,525,1.6935
17.0030,473,1.5258
17.0074,483,1.5581
17.0116,551,1.7774
17.0159,576,1.8581
17.0202,523,1.6871
17.0245,474,1.5290
17.0288,502,1.6194
17.0331,564,1.8194
17.0374,557,1.7968
17.0418,494,1.5935
17.0461,479,1.5452
17.0504,533,1.7194
17.0547,572,1.8452
17.0590,542,1.7484
17.0633,491,1.5839
17.0676,501,1.6161
17.0719,565,1.8226
17.0762,590,1.9032
17.0805,536,1.7290
17.0848,493,1.5903
17.0891,527,1.7000
17.0934,583,1.8806
17.0977,574,1.8516
17.1020,510,1.6452
17.1063,494,1.5935
17.1106,554,1.7871
17.1149,590,1.9032
17.1192,551,1.7774
17.1235,500,1.6129
17.1278,516,1.6645
17.1321,579,1.8677
17.1364,590,1.9032
17.1407,529,1.7065
17.1451,492,1.5871
17.1494,532,1.7161
17.1537,593,1.9129
17.1579,580,1.8710
17.1622,511,1.6484
17.1665,499,1.6097
17.1708,560,1.8065
17.1752,592,1.9097
17.1794,548,1.7677
17.1837,498,1.6065
17.1880,525,1.6935
17.1923,594,1.9161
17.1967,604,1.9484
17.2010,547,1.7645
17.2061,528,1.7032
17.2105,585,1.8871
17.2149,618,1.9935
17.2193,581,1.8742
17.2236,552,1.7806
17.2280,608,1.9613
17.2323,732,2.3613
17.2367,814,2.6258
17.2410,838,2.7032
17.2453,845,2.7258
17.2496,860,2.7742
17.2540,817,2.6355
17.2583,682,2.2000
17.2626,543,1.7516
17.2670,509,1.6419
17.2713,561,1.8097
17.2757,570,1.8387
17.2800,517,1.6677
17.2844,486,1.5677
17.2887,536,1.7290
17.2929,613,1.9774
17.2973,618,1.9935
17.3016,552,1.7806
17.3059,527,1.7000
17.3102,574,1.8516
17.3145,614,1.9806
17.3188,576,1.8581
17.3231,513,1.6548
17.3274,525,1.6935
17.3316,591,1.9065
17.3360,606,1.9548
17.3403,545,1.7581
17.3445,509,1.6419
17.3488,548,1.7677
17.3531,603,1.9452
17.3575,593,1.9129
17.3617,532,1.7161
17.3660,520,1.6774
17.3703,578,1.8645
17.3746,624,2.0129
17.3789,587,1.8935
17.3832,521,1.6806
17.3875,531,1.7129
17.3918,597,1.9258
17.3961,612,1.9742
17.4004,547,1.7645
17.4047,507,1.6355
17.4090,550,1.7742
17.4133,607,1.9581
17.4176,584,1.8839
17.4219,512,1.6516
17.4261,497,1.6032
17.4304,553,1.7839
17.4347,591,1.9065
17.4390,550,1.7742
17.4433,489,1.5774
17.4476,513,1.6548
17.4519,584,1.8839
17.4562,591,1.9065
17.4605,525,1.6935
17.4648,482,1.5548
17.4692,527,1.7000
17.4734,577,1.8613
17.4777,548,1.7677
17.4820,478,1.5419
17.4863,469,1.5129
17.4907,530,1.7097
17.4950,567,1.8290
17.5004,510,1.6452
17.5052,473,1.5258
17.5095,529,1.7065
17.5139,584,1.8839
17.5182,553,1.7839
17.5226,480,1.5484
17.5269,472,1.5226
17.5311,532,1.7161
17.5357,552,1.7806
17.5402,488,1.5742
17.5445,440,1.4194
17.5488,471,1.5194
17.5530,531,1.7129
17.5574,520,1.6774
17.5617,448,1.4452
17.5660,430,1.3871
17.5703,491,1.5839
17.5746,534,1.7226
17.5789,496,1.6000
17.5835,439,1.4161
17.5879,460,1.4839
17.5921,528,1.7032
17.5964,540,1.7419
17.6006,480,1.5484
17.6049,450,1.4516
17.6092,492,1.5871
17.6135,546,1.7613
17.6184,514,1.6581
17.6227,451,1.4548
17.6270,457,1.4742
17.6312,527,1.7000
17.6355,557,1.7968
17.6398,501,1.6161
17.6441,465,1.5000
17.6484,511,1.6484
17.6526,584,1.8839
17.6569,575,1.8548
17.6612,511,1.6484
17.6655,494,1.5935
17.6697,555,1.7903
17.6740,608,1.9613
17.6782,577,1.8613
17.6825,506,1.6323
17.6868,499,1.6097
17.6911,560,1.8065
17.6953,586,1.8903
17.6996,527,1.7000
17.7039,473,1.5258
17.7082,505,1.6290
17.7124,567,1.8290
17.7166,564,1.8194
17.7209,498,1.6065
17.7252,472,1.5226
17.7295,525,1.6935
17.7338,572,1.8452
17.7380,547,1.7645
17.7423,477,1.5387
17.7466,468,1.5097
17.7509,529,1.7065
17.7551,552,1.7806
17.7594,499,1.6097
17.7637,449,1.4484
17.7680,484,1.5613
17.7722,551,1.7774
17.7765,551,1.7774
17.7807,500,1.6129
17.7851,482,1.5548
17.7895,537,1.7323
17.7937,588,1.8968
17.7980,567,1.8290
17.8022,505,1.6290
17.8065,497,1.6032
17.8108,561,1.8097
17.8151,593,1.9129
17.8193,541,1.7452
17.8236,483,1.5581
17.8279,507,1.6355
17.8321,577,1.8613
17.8364,579,1.8677
17.8407,516,1.6645
17.8449,484,1.5613
17.8493,532,1.7161
17.8535,582,1.8774
17.8578,563,1.8161
17.8621,499,1.6097
17.8663,487,1.5710
17.8706,551,1.7774
17.8748,585,1.8871
17.8791,534,1.7226
17.8834,476,1.5355
17.8877,496,1.6000
17.8920,566,1.8258
17.8963,577,1.8613
17.9005,515,1.6613
17.9048,482,1.5548
17.9091,529,1.7065
17.9135,580,1.8710
17.9177,558,1.8000
17.9220,490,1.5806
17.9263,476,1.5355
17.9306,540,1.7419
17.9349,580,1.8710
17.9393,534,1.7226
17.9436,480,1.5484
17.9479,505,1.6290
17.9522,572,1.8452
17.9565,569,1.8355
17.9608,499,1.6097
17.9651,474,1.5290
17.9694,535,1.7258
17.9737,600,1.9355
17.9780,583,1.8806
17.9823,528,1.7032
17.9865,521,1.6806
17.9908,575,1.8548
17.9951,601,1.9387
17.9994,551,1.7774
18.0037,494,1.5935
18.0080,521,1.6806
18.0123,596,1.9226
18.0166,592,1.9097
18.0209,515,1.6613
18.0252,488,1.5742
18.0294,548,1.7677
18.0337,598,1.9290
18.0380,565,1.8226
18.0423,497,1.6032
18.0466,493,1.5903
18.0509,557,1.7968
18.0552,585,1.8871
18.0595,540,1.7419
18.0638,497,1.6032
18.0681,532,1.7161
18.0724,590,1.9032
18.0767,582,1.8774
18.0810,524,1.6903
18.0853,534,1.7226
18.0896,642,2.0710
18.0939,754,2.4323
18.0982,806,2.6000
18.1025,819,2.6419
18.1090,856,2.7613
18.1134,824,2.6581
18.1177,690,2.2258
18.1220,565,1.8226
18.1263,540,1.7419
18.1306,585,1.8871
18.1349,595,1.9194
18.1392,539,1.7387
18.1435,493,1.5903
18.1478,530,1.7097
18.1521,615,1.9839
18.1564,634,2.0452
18.1608,574,1.8516
18.1650,546,1.7613
18.1693,597,1.9258
18.1736,642,2.0710
18.1779,606,1.9548
18.1822,541,1.7452
18.1865,545,1.7581
18.1908,611,1.9710
18.1951,635,2.0484
18.1997,575,1.8548
18.2040,534,1.7226
18.2083,572,1.8452
18.2125,632,2.0387
18.2168,633,2.0419
18.2211,576,1.8581
18.2254,563,1.8161
18.2296,625,2.0161
18.2339,676,2.1806
18.2382,641,2.0677
18.2424,575,1.8548
18.2467,586,1.8903
18.2510,655,2.1129
18.2552,675,2.1774
18.2595,647,2.0871
18.2638,635,2.0484
18.2680,685,2.2097
18.2723,752,2.4258
18.2766,750,2.4194
18.2808,685,2.2097
18.2851,654,2.1097
18.2894,705,2.2742
18.2936,754,2.4323
18.2979,724,2.3355
18.3023,657,2.1194
18.3066,664,2.1419
18.3109,731,2.3581
18.3151,755,2.4355
18.3194,698,2.2516
18.3237,655,2.1129
18.3280,686,2.2129
18.3323,740,2.3871
18.3365,733,2.3645
18.3408,675,2.1774
18.3452,655,2.1129
18.3494,705,2.2742
18.3537,749,2.4161
18.3580,712,2.2968
18.3623,639,2.0613
18.3666,644,2.0774
18.3709,713,2.3000
18.3752,728,2.3484
18.3795,661,2.1323
18.3838,610,1.9677
18.3881,636,2.0516
18.3924,687,2.2161
18.3967,666,2.1484
18.4010,587,1.8935
18.4055,563,1.8161
18.4099,620,2.0000
18.4144,651,2.1000
18.4187,604,1.9484
18.4230,544,1.7548
18.4274,562,1.8129
18.4317,630,2.0323
18.4360,633,2.0419
18.4404,557,1.7968
18.4447,520,1.6774
18.4491,577,1.8613
18.4534,639,2.0613
18.4578,605,1.9516
18.4621,545,1.7581
18.4665,554,1.7871
18.4708,618,1.9935
18.4751,634,2.0452
18.4795,574,1.8516
18.4838,528,1.7032
18.4881,561,1.8097
18.4925,628,2.0258
18.4968,620,2.0000
18.5011,549,1.7710
18.5054,526,1.6968
18.5097,580,1.8710
18.5140,621,2.0032
18.5183,582,1.8774
18.5226,524,1.6903
18.5269,542,1.7484
18.5312,614,1.9806
18.5355,636,2.0516
18.5397,579,1.8677
18.5440,544,1.7548
18.5484,582,1.8774
18.5527,631,2.0355
18.5570,599,1.9323
18.5613,522,1.6839
18.5656,501,1.6161
18.5699,557,1.7968
18.5742,594,1.9161
18.5785,550,1.7742
18.5828,488,1.5742
18.5871,504,1.6258
18.5915,574,1.8516
18.5958,582,1.8774
18.6001,519,1.6742
18.6044,490,1.5806
18.6088,544,1.7548
18.6131,605,1.9516
18.6174,590,1.9032
18.6218,535,1.7258
18.6261,536,1.7290
18.6304,595,1.9194
18.6348,616,1.9871
18.6391,565,1.8226
18.6434,521,1.6806
18.6478,553,1.7839
18.6522,616,1.9871
18.6565,607,1.9581
18.6608,533,1.7194
18.6651,514,1.6581
18.6695,574,1.8516
18.6738,616,1.9871
18.6781,572,1.8452
18.6825,512,1.6516
18.6868,524,1.6903
18.6911,585,1.8871
18.6955,588,1.8968
18.6998,528,1.7032
18.7041,499,1.6097
18.7084,554,1.7871
18.7127,631,2.0355
18.7170,627,2.0226
18.7213,563,1.8161
18.7255,557,1.7968
18.7298,627,2.0226
18.7341,662,2.1355
18.7384,608,1.9613
18.7427,545,1.7581
18.7470,563,1.8161
18.7513,626,2.0194
18.7557,632,2.0387
18.7600,572,1.8452
18.7642,533,1.7194
18.7685,575,1.8548
18.7728,629,2.0290
18.7771,607,1.9581
18.7814,542,1.7484
18.7857,536,1.7290
18.7900,600,1.9355
18.7943,639,2.0613
18.7986,595,1.9194
18.8029,538,1.7355
18.8073,564,1.8194
18.8116,636,2.0516
18.8160,635,2.0484
18.8203,568,1.8323
18.8246,536,1.7290
18.8289,577,1.8613
18.8333,618,1.9935
18.8376,583,1.8806
18.8419,519,1.6742
18.8463,520,1.6774
18.8506,578,1.8645
18.8550,594,1.9161
18.8593,537,1.7323
18.8637,491,1.5839
18.8680,535,1.7258
18.8723,600,1.9355
18.8767,581,1.8742
18.8810,515,1.6613
18.8853,509,1.6419
18.8896,570,1.8387
18.8940,600,1.9355
18.8983,551,1.7774
18.9026,496,1.6000
18.9069,514,1.6581
18.9112,579,1.8677
18.9155,601,1.9387
18.9198,569,1.8355
18.9241,585,1.8871
18.9284,712,2.2968
18.9327,867,2.7968
18.9370,926,2.9871
18.9413,862,2.7806
18.9456,781,2.5194
18.9499,728,2.3484
18.9542,663,2.1387
18.9585,556,1.7935
18.9628,474,1.5290
18.9671,482,1.5548
18.9714,540,1.7419
18.9757,551,1.7774
18.9800,501,1.6161
18.9843,475,1.5323
18.9886,529,1.7065
18.9929,585,1.8871
18.9972,560,1.8065
19.0015,493,1.5903
19.0060,502,1.6194
19.0104,574,1.8516
19.0149,599,1.9323
19.0193,539,1.7387
19.0236,505,1.6290
19.0279,547,1.7645
19.0322,602,1.9419
19.0365,590,1.9032
19.0409,522,1.6839
19.0453,507,1.6355
19.0496,560,1.8065
19.0539,595,1.9194
19.0582,556,1.7935
19.0625,502,1.6194
19.0668,522,1.6839
19.0711,593,1.9129
19.0754,604,1.9484
19.0797,540,1.7419
19.0840,511,1.6484
19.0883,562,1.8129
19.0926,616,1.9871
19.0969,590,1.9032
19.1012,526,1.6968
19.1055,524,1.6903
19.1097,585,1.8871
19.1140,619,1.9968
19.1183,585,1.8871
19.1225,538,1.7355
19.1268,563,1.8161
19.1311,626,2.0194
19.1353,638,2.0581
19.1396,577,1.8613
19.1439,550,1.7742
19.1482,601,1.9387
19.1524,658,2.1226
19.1567,631,2.0355
19.1610,568,1.8323
19.1652,565,1.8226
19.1695,621,2.0032
19.1738,655,2.1129
19.1780,614,1.9806
19.1823,565,1.8226
19.1866,587,1.8935
19.1909,653,2.1065
19.1951,663,2.1387
19.1994,597,1.9258
19.2037,559,1.8032
19.2081,604,1.9484
19.2123,656,2.1161
19.2166,625,2.0161
19.2209,550,1.7742
19.2253,538,1.7355
19.2295,594,1.9161
19.2338,626,2.0194
19.2381,584,1.8839
19.2425,521,1.6806
19.2468,530,1.7097
19.2511,586,1.8903
19.2554,592,1.9097
19.2597,521,1.6806
19.2640,480,1.5484
19.2683,528,1.7032
19.2726,580,1.8710
19.2770,551,1.7774
19.2813,491,1.5839
19.2856,494,1.5935
19.2899,556,1.7935
19.2942,582,1.8774
19.2986,540,1.7419
19.3029,498,1.6065
19.3091,562,1.8129
19.3135,603,1.9452
19.3178,566,1.8258
19.3221,516,1.6645
19.3263,536,1.7290
19.3306,605,1.9516
19.3349,620,2.0000
19.3392,566,1.8258
19.3435,534,1.7226
19.3478,581,1.8742
19.3520,638,2.0581
19.3563,619,1.9968
19.3606,541,1.7452
19.3649,518,1.6710
19.3692,577,1.8613
19.3734,614,1.9806
19.3777,575,1.8548
19.3819,517,1.6677
19.3862,526,1.6968
19.3905,583,1.8806
19.3947,590,1.9032
19.3991,527,1.7000
19.4033,480,1.5484
19.4076,512,1.6516
19.4118,567,1.8290
19.4161,551,1.7774
19.4204,474,1.5290
19.4247,454,1.4645
19.4289,511,1.6484
19.4332,550,1.7742
19.4375,516,1.6645
19.4417,455,1.4677
19.4460,456,1.4710
19.4502,514,1.6581
19.4545,538,1.7355
19.4588,486,1.5677
19.4630,433,1.3968
19.4673,457,1.4742
19.4716,517,1.6677
19.4759,508,1.6387
19.4803,440,1.4194
19.4846,442,1.4258
19.4889,516,1.6645
19.4932,558,1.8000
19.4974,520,1.6774
19.5017,458,1.4774
19.5060,472,1.5226
19.5103,540,1.7419
19.5146,566,1.8258
19.5188,523,1.6871
19.5232,492,1.5871
19.5275,537,1.7323
19.5318,611,1.9710
19.5361,603,1.9452
19.5404,533,1.7194
19.5446,517,1.6677
19.5490,582,1.8774
19.5533,623,2.0097
19.5576,585,1.8871
19.5619,529,1.7065
19.5662,537,1.7323
19.5705,601,1.9387
19.5748,619,1.9968
19.5791,575,1.8548
19.5834,553,1.7839
19.5877,606,1.9548
19.5920,677,2.1839
19.5963,677,2.1839
19.6006,617,1.9903
19.6049,613,1.9774
19.6092,684,2.2065
19.6135,708,2.2839
19.6178,613,1.9774
19.6221,507,1.6355
19.6264,501,1.6161
19.6307,555,1.7903
19.6350,562,1.8129
19.6393,508,1.6387
19.6436,480,1.5484
19.6479,524,1.6903
19.6522,580,1.8710
19.6565,557,1.7968
19.6608,485,1.5645
19.6651,474,1.5290
19.6694,536,1.7290
19.6737,568,1.8323
19.6780,522,1.6839
19.6823,473,1.5258
19.6866,504,1.6258
19.6909,564,1.8194
19.6952,554,1.7871
19.6995,487,1.5710
19.7038,458,1.4774
19.7081,503,1.6226
19.7124,551,1.7774
19.7167,524,1.6903
19.7210,454,1.4645
19.7253,443,1.4290
19.7296,506,1.6323
19.7339,538,1.7355
19.7382,491,1.5839
19.7425,447,1.4419
19.7468,483,1.5581
19.7511,547,1.7645
19.7554,540,1.7419
19.7597,475,1.5323
19.7640,454,1.4645
19.7683,508,1.6387
19.7726,561,1.8097
19.7769,541,1.7452
19.7812,487,1.5710
19.7855,502,1.6194
19.7897,593,1.9129
19.7940,663,2.1387
19.7984,665,2.1452
19.8026,690,2.2258
19.8069,813,2.6226
19.8112,929,2.9968
19.8155,897,2.8935
19.8198,721,2.3258
19.8241,582,1.8774
19.8284,555,1.7903
19.8327,559,1.8032
19.8370,509,1.6419
19.8413,440,1.4194
19.8456,441,1.4226
19.8499,514,1.6581
19.8542,548,1.7677
19.8585,500,1.6129
19.8628,456,1.4710
19.8671,491,1.5839
19.8714,550,1.7742
19.8757,539,1.7387
19.8800,471,1.5194
19.8843,451,1.4548
19.8886,506,1.6323
19.8928,539,1.7387
19.8971,503,1.6226
19.9017,444,1.4323
19.9077,484,1.5613
19.9122,529,1.7065
19.9165,500,1.6129
19.9208,436,1.4065
19.9251,437,1.4097
19.9293,500,1.6129
19.9336,526,1.6968
19.9379,485,1.5645
19.9421,438,1.4129
19.9464,467,1.5065
19.9507,539,1.7387
19.9549,546,1.7613
19.9592,479,1.5452
19.9636,452,1.4581
19.9682,507,1.6355
19.9725,543,1.7516
19.9767,499,1.6097
19.9810,435,1.4032
19.9853,438,1.4129
19.9895,499,1.6097
19.9938,520,1.6774
19.9980,471,1.5194
20.0023,423,1.3645
20.0065,447,1.4419
20.0113,511,1.6484
20.0157,500,1.6129
20.0226,425,1.3710
20.0271,464,1.4968
20.0316,524,1.6903
20.0373,489,1.5774
20.0418,434,1.4000
20.0462,462,1.4903
20.0505,531,1.7129
20.0548,536,1.7290
20.0591,478,1.5419
20.0637,451,1.4548
20.0680,497,1.6032
20.0723,537,1.7323
20.0766,502,1.6194
20.0809,439,1.4161
20.0852,431,1.3903
20.0895,480,1.5484
20.0938,494,1.5935
20.0981,431,1.3903
20.1024,374,1.2065
20.1068,401,1.2935
20.1117,469,1.5129
20.1160,447,1.4419
20.1202,370,1.1935
20.1245,352,1.1355
20.1294,419,1.3516
20.1337,442,1.4258
20.1379,382,1.2323
20.1422,325,1.0484
20.1465,345,1.1129
20.1508,401,1.2935
20.1550,401,1.2935
20.1593,346,1.1161
20.1636,324,1.0452
20.1679,369,1.1903
20.1722,415,1.3387
20.1765,379,1.2226
20.1807,303,0.9774
20.1850,295,0.9516
20.1893,356,1.1484
20.1935,381,1.2290
20.1978,328,1.0581
20.2021,275,0.8871
20.2083,325,1.0484
20.2127,365,1.1774
20.2171,321,1.0355
20.2214,256,0.8258
20.2257,266,0.8581
20.2300,339,1.0935
20.2343,358,1.1548
20.2386,302,0.9742
20.2429,272,0.8774
20.2472,313,1.0097
20.2515,368,1.1871
20.2558,360,1.1613
20.2601,309,0.9968
20.2645,304,0.9806
20.2691,323,1.0419
20.2735,267,0.8613
20.2778,158,0.5097
20.2820,102,0.3290
20.2863,151,0.4871
20.2906,220,0.7097
20.2950,203,0.6548
20.2993,129,0.4161
20.3036,103,0.3323
20.3079,157,0.5065
20.3122,208,0.6710
20.3165,184,0.5935
20.3208,131,0.4226
20.3251,143,0.4613
20.3294,215,0.6935
20.3337,256,0.8258
20.3381,214,0.6903
20.3423,171,0.5516
20.3466,212,0.6839
20.3512,291,0.9387
20.3555,290,0.9355
20.3598,221,0.7129
20.3641,207,0.6677
20.3684,275,0.8871
20.3727,331,1.0677
20.3771,305,0.9839
20.3814,256,0.8258
20.3857,274,0.8839
20.3900,336,1.0839
20.3943,353,1.1387
20.3986,302,0.9742
20.4029,269,0.8677
20.4072,314,1.0129
20.4115,384,1.2387
20.4158,380,1.2258
20.4201,319,1.0290
20.4244,314,1.0129
20.4287,383,1.2355
20.4330,417,1.3452
20.4374,367,1.1839
20.4417,314,1.0129
20.4460,341,1.1000
20.4502,410,1.3226
20.4545,424,1.3677
20.4589,371,1.1968
20.4632,352,1.1355
20.4675,413,1.3323
20.4718,486,1.5677
20.4761,483,1.5581
20.4804,431,1.3903
20.4847,437,1.4097
20.4890,511,1.6484
20.4933,551,1.7774
20.4976,505,1.6290
20.5019,464,1.4968
20.5062,506,1.6323
20.5106,579,1.8677
20.5150,575,1.8548
20.5193,510,1.6452
20.5236,493,1.5903
20.5279,544,1.7548
20.5322,595,1.9194
20.5365,576,1.8581
20.5408,528,1.7032
20.5451,541,1.7452
20.5494,626,2.0194
20.5537,669,2.1581
20.5580,631,2.0355
20.5623,606,1.9548
20.5667,661,2.1323
20.5709,731,2.3581
20.5752,709,2.2871
20.5800,617,1.9903
20.5843,604,1.9484
20.5886,671,2.1645
20.5929,715,2.3065
20.5972,675,2.1774
20.6015,625,2.0161
20.6058,650,2.0968
20.6101,719,2.3194
20.6144,733,2.3645
20.6187,673,2.1710
20.6230,632,2.0387
20.6273,672,2.1677
20.6316,729,2.3516
20.6359,708,2.2839
20.6402,644,2.0774
20.6445,646,2.0839
20.6488,707,2.2806
20.6531,724,2.3355
20.6575,659,2.1258
20.6618,602,1.9419
20.6661,624,2.0129
20.6704,696,2.2452
20.6747,730,2.3548
20.6790,711,2.2935
20.6833,739,2.3839
20.6876,865,2.7903
20.6919,992,3.2000
20.6962,981,3.1645
20.7005,862,2.7806
20.7048,762,2.4581
20.7091,740,2.3871
20.7134,703,2.2677
20.7178,607,1.9581
20.7221,537,1.7323
20.7264,555,1.7903
20.7307,610,1.9677
20.7350,612,1.9742
20.7393,556,1.7935
20.7436,537,1.7323
20.7479,586,1.8903
20.7522,625,2.0161
20.7565,587,1.8935
20.7608,522,1.6839
20.7651,533,1.7194
20.7694,600,1.9355
20.7737,615,1.9839
20.7780,552,1.7806
20.7823,513,1.6548
20.7866,554,1.7871
20.7909,605,1.9516
20.7952,583,1.8806
20.7995,510,1.6452
20.8038,497,1.6032
20.8083,551,1.7774
20.8128,577,1.8613
20.8172,530,1.7097
20.8215,480,1.5484
20.8258,504,1.6258
20.8301,564,1.8194
20.8344,558,1.8000
20.8387,487,1.5710
20.8430,451,1.4548
20.8473,501,1.6161
20.8516,553,1.7839
20.8559,522,1.6839
20.8602,449,1.4484
20.8645,444,1.4323
20.8688,506,1.6323
20.8731,532,1.7161
20.8774,486,1.5677
20.8821,448,1.4452
20.8864,484,1.5613
20.8907,541,1.7452
20.8950,538,1.7355
20.8994,492,1.5871
20.9037,488,1.5742
20.9080,554,1.7871
20.9123,602,1.9419
20.9166,564,1.8194
20.9209,508,1.6387
20.9252,524,1.6903
20.9296,593,1.9129
20.9339,601,1.9387
20.9381,545,1.7581
20.9424,513,1.6548
20.9467,560,1.8065
20.9511,624,2.0129
20.9554,610,1.9677
20.9596,544,1.7548
20.9639,528,1.7032
20.9683,586,1.8903
20.9726,624,2.0129
20.9769,571,1.8419
20.9812,504,1.6258
20.9855,512,1.6516
20.9898,568,1.8323
20.9941,564,1.8194
20.9984,496,1.6000
21.0026,466,1.5032
21.0069,512,1.6516
21.0113,561,1.8097
21.0156,535,1.7258
21.0199,466,1.5032
21.0242,469,1.5129
21.0289,543,1.7516
21.0332,568,1.8323
21.0375,523,1.6871
21.0418,480,1.5484
21.0461,500,1.6129
21.0505,558,1.8000
21.0547,561,1.8097
21.0590,501,1.6161
21.0633,489,1.5774
21.0676,549,1.7710
21.0720,593,1.9129
21.0763,554,1.7871
21.0806,497,1.6032
21.0848,511,1.6484
21.0892,567,1.8290
21.0935,579,1.8677
21.0978,528,1.7032
21.1021,499,1.6097
21.1067,550,1.7742
21.1112,615,1.9839
21.1156,593,1.9129
21.1199,527,1.7000
21.1242,532,1.7161
21.1285,609,1.9645
21.1328,653,2.1065
21.1371,609,1.9645
21.1414,567,1.8290
21.1457,604,1.9484
21.1500,671,2.1645
21.1543,666,2.1484
21.1586,606,1.9548
21.1629,576,1.8581
21.1672,610,1.9677
21.1715,645,2.0806
21.1759,608,1.9613
21.1802,544,1.7548
21.1844,544,1.7548
21.1887,619,1.9968
21.1931,654,2.1097
21.1974,596,1.9226
21.2017,552,1.7806
21.2060,612,1.9742
21.2103,717,2.3129
21.2146,745,2.4032
21.2189,706,2.2774
21.2233,723,2.3323
21.2275,820,2.6452
21.2318,891,2.8742
21.2362,861,2.7774
21.2405,801,2.5839
21.2448,798,2.5742
21.2490,840,2.7097
21.2539,826,2.6645
21.2582,749,2.4161
21.2625,700,2.2581
21.2668,722,2.3290
21.2711,748,2.4129
21.2755,701,2.2613
21.2797,616,1.9871
21.2840,601,1.9387
21.2883,661,2.1323
21.2926,687,2.2161
21.2969,636,2.0516
21.3012,592,1.9097
21.3055,626,2.0194
21.3098,686,2.2129
21.3141,686,2.2129
21.3184,623,2.0097
21.3228,598,1.9290
21.3271,640,2.0645
21.3313,687,2.2161
21.3357,661,2.1323
21.3400,597,1.9258
21.3443,597,1.9258
21.3485,655,2.1129
21.3528,656,2.1161
21.3572,584,1.8839
21.3615,522,1.6839
21.3658,543,1.7516
21.3700,579,1.8677
21.3744,539,1.7387
21.3787,430,1.3871
21.3830,368,1.1871
21.3873,388,1.2516
21.3916,418,1.3484
21.3959,368,1.1871
21.4002,292,0.9419
21.4045,296,0.9548
21.4088,372,1.2000
21.4131,412,1.3290
21.4174,367,1.1839
21.4217,325,1.0484
21.4260,371,1.1968
21.4303,438,1.4129
21.4346,452,1.4581
21.4389,415,1.3387
21.4432,420,1.3548
21.4475,486,1.5677
21.4518,539,1.7387
21.4561,499,1.6097
21.4604,420,1.3548
21.4647,424,1.3677
21.4690,503,1.6226
21.4733,525,1.6935
21.4776,463,1.4935
21.4819,425,1.3710
21.4862,476,1.5355
21.4905,565,1.8226
21.4948,597,1.9258
21.4992,607,1.9581
21.5035,695,2.2419
21.5077,869,2.8032
21.5120,965,3.1129
21.5163,898,2.8968
21.5207,742,2.3935
21.5250,650,2.0968
21.5293,653,2.1065
21.5336,625,2.0161
21.5379,526,1.6968
21.5422,479,1.5452
21.5465,526,1.6968
21.5508,585,1.8871
21.5551,567,1.8290
21.5599,522,1.6839
21.5642,547,1.7645
21.5685,609,1.9645
21.5728,617,1.9903
21.5771,553,1.7839
21.5814,504,1.6258
21.5857,530,1.7097
21.5900,580,1.8710
21.5943,560,1.8065
21.5986,487,1.5710
21.6029,463,1.4935
21.6072,510,1.6452
21.6116,550,1.7742
21.6159,505,1.6290
21.6202,437,1.4097
21.6245,450,1.4516
21.6288,508,1.6387
21.6331,518,1.6710
21.6374,473,1.5258
21.6417,457,1.4742
21.6460,498,1.6065
21.6503,567,1.8290
21.6546,571,1.8419
21.6589,521,1.6806
21.6632,518,1.6710
21.6675,583,1.8806
21.6718,623,2.0097
21.6761,587,1.8935
21.6804,548,1.7677
21.6848,589,1.9000
21.6891,650,2.0968
21.6933,633,2.0419
21.6978,537,1.7323
21.7026,476,1.5355
21.7071,508,1.6387
21.7114,529,1.7065
21.7158,483,1.5581
21.7201,438,1.4129
21.7245,465,1.5000
21.7288,538,1.7355
21.7331,596,1.9226
21.7374,588,1.8968
21.7417,595,1.9194
21.7467,696,2.2452
21.7511,761,2.4548
21.7554,744,2.4000
21.7602,693,2.2355
21.7645,707,2.2806
21.7688,765,2.4677
21.7731,762,2.4581
21.7774,673,2.1710
21.7817,607,1.9581
21.7860,631,2.0355
21.7903,666,2.1484
21.7946,622,2.0065
21.7989,538,1.7355
21.8032,508,1.6387
21.8076,542,1.7484
21.8119,553,1.7839
21.8162,481,1.5516
21.8205,398,1.2839
21.8248,396,1.2774
21.8292,467,1.5065
21.8335,479,1.5452
21.8378,402,1.2968
21.8421,368,1.1871
21.8464,434,1.4000
21.8507,506,1.6323
21.8550,510,1.6452
21.8593,475,1.5323
21.8636,509,1.6419
21.8680,607,1.9581
21.8723,650,2.0968
21.8766,611,1.9710
21.8809,566,1.8258
21.8852,579,1.8677
21.8895,611,1.9710
21.8938,579,1.8677
21.8981,497,1.6032
21.9024,452,1.4581
21.9072,488,1.5742
21.9115,501,1.6161
21.9158,427,1.3774
21.9201,340,1.0968
21.9244,333,1.0742
21.9288,387,1.2484
21.9331,371,1.1968
21.9374,291,0.9387
21.9417,250,0.8065
21.9460,299,0.9645
21.9503,357,1.1516
21.9546,358,1.1548
21.9589,321,1.0355
21.9632,333,1.0742
21.9675,390,1.2581
21.9718,404,1.3032
21.9761,351,1.1323
21.9804,305,0.9839
21.9847,337,1.0871
21.9891,417,1.3452
21.9934,422,1.3613
21.9977,350,1.1290
22.0021,330,1.0645
22.0065,395,1.2742
22.0110,453,1.4613
22.0154,439,1.4161
22.0196,412,1.3290
22.0239,453,1.4613
22.0283,548,1.7677
22.0326,579,1.8677
22.0369,521,1.6806
22.0412,457,1.4742
22.0456,464,1.4968
22.0499,497,1.6032
22.0542,472,1.5226
22.0584,404,1.3032
22.0627,391,1.2613
22.0670,451,1.4548
22.0712,484,1.5613
22.0755,417,1.3452
22.0798,332,1.0710
22.0840,324,1.0452
22.0883,366,1.1806
22.0925,362,1.1677
22.0968,305,0.9839
22.1011,271,0.8742
22.1053,316,1.0194
22.1096,402,1.2968
22.1139,416,1.3419
22.1182,371,1.1968
22.1225,377,1.2161
22.1268,448,1.4452
22.1311,506,1.6323
22.1354,492,1.5871
22.1397,463,1.4935
22.1440,498,1.6065
22.1483,579,1.8677
22.1526,598,1.9290
22.1569,547,1.7645
22.1612,519,1.6742
22.1655,564,1.8194
22.1699,640,2.0645
22.1741,680,2.1935
22.1784,663,2.1387
22.1827,668,2.1548
22.1870,716,2.3097
22.1913,734,2.3677
22.1956,682,2.2000
22.1999,667,2.1516
22.2042,715,2.3065
22.2085,743,2.3968
22.2128,715,2.3065
22.2171,630,2.0323
22.2215,590,1.9032
22.2257,625,2.0161
22.2300,672,2.1677
22.2343,634,2.0452
22.2386,525,1.6935
22.2428,447,1.4419
22.2471,440,1.4194
22.2514,419,1.3516
22.2556,325,1.0484
22.2599,228,0.7355
22.2642,212,0.6839
22.2685,255,0.8226
22.2727,246,0.7935
22.2770,166,0.5355
22.2813,123,0.3968
22.2855,170,0.5484
22.2898,250,0.8065
22.2941,270,0.8710
22.2983,258,0.8323
22.3026,323,1.0419
22.3069,489,1.5774
22.3111,661,2.1323
22.3155,767,2.4742
22.3197,841,2.7129
22.3240,929,2.9968
22.3283,995,3.2097
22.3326,972,3.1355
22.3369,879,2.8355
22.3412,836,2.6968
22.3455,872,2.8129
22.3498,937,3.0226
22.3541,938,3.0258
22.3584,896,2.8903
22.3627,914,2.9484
22.3670,996,3.2129
22.3713,1002,3.2323
22.3756,1001,3.2290
22.3799,999,3.2226
22.3843,999,3.2226
22.3885,1003,3.2355
22.3928,1002,3.2323
22.3972,1000,3.2258
22.4015,1002,3.2323
22.4058,1001,3.2290
22.4100,1002,3.2323
22.4144,1004,3.2387
22.4186,1004,3.2387
22.4230,1003,3.2355
22.4273,1004,3.2387
22.4315,1005,3.2419
22.4359,1004,3.2387
22.4401,1005,3.2419
22.4444,1003,3.2355
22.4487,1006,3.2452
22.4530,1005,3.2419
22.4573,1004,3.2387
22.4616,1002,3.2323
22.4659,1001,3.2290
22.4702,1001,3.2290
22.4746,995,3.2097
22.4790,904,2.9161
22.4832,830,2.6774
22.4876,850,2.7419
22.4919,878,2.8323
22.4962,843,2.7194
22.5005,818,2.6387
22.5048,858,2.7677
22.5091,909,2.9323
22.5134,887,2.8613
22.5177,820,2.6452
22.5220,809,2.6097
22.5263,888,2.8645
22.5306,935,3.0161
22.5349,903,2.9129
22.5392,848,2.7355
22.5435,868,2.8000
22.5478,946,3.0516
22.5521,991,3.1968
22.5564,981,3.1645
22.5606,981,3.1645
22.5650,1000,3.2258
22.5693,1001,3.2290
22.5735,1000,3.2258
22.5778,993,3.2032
22.5822,972,3.1355
22.5865,950,3.0645
22.5908,906,2.9226
22.5950,802,2.5871
22.5993,687,2.2161
22.6037,646,2.0839
22.6081,656,2.1161
22.6125,625,2.0161
22.6169,539,1.7387
22.6213,494,1.5935
22.6256,532,1.7161
22.6300,597,1.9258
22.6343,577,1.8613
22.6386,476,1.5355
22.6428,423,1.3645
22.6471,456,1.4710
22.6514,483,1.5581
22.6557,444,1.4323
22.6599,405,1.3065
22.6642,431,1.3903
22.6685,483,1.5581
22.6727,470,1.5161
22.6770,375,1.2097
22.6813,312,1.0065
22.6856,361,1.1645
22.6898,460,1.4839
22.6941,492,1.5871
22.6983,369,1.1903
22.7026,211,0.6806
22.7069,160,0.5161
22.7111,166,0.5355
22.7154,138,0.4452
22.7196,94,0.3032
22.7243,89,0.2871
22.7286,101,0.3258
22.7329,44,0.1419
22.7371,0,0.0000
22.7414,0,0.0000
22.7457,0,0.0000
22.7500,0,0.0000
22.7542,0,0.0000
22.7585,0,0.0000
22.7627,0,0.0000
22.7670,0,0.0000
22.7713,0,0.0000
22.7755,0,0.0000
22.7798,0,0.0000
22.7841,0,0.0000
22.7883,0,0.0000
22.7926,0,0.0000
22.7968,0,0.0000
22.8011,0,0.0000
22.8054,0,0.0000
22.8096,0,0.0000
22.8139,0,0.0000
22.8182,0,0.0000
22.8224,13,0.0419
22.8269,97,0.3129
22.8311,142,0.4581
22.8355,103,0.3323
22.8398,64,0.2065
22.8441,99,0.3194
22.8484,166,0.5355
22.8527,167,0.5387
22.8570,108,0.3484
22.8613,91,0.2935
22.8656,144,0.4645
22.8699,202,0.6516
22.8742,185,0.5968
22.8785,127,0.4097
22.8828,127,0.4097
22.8871,187,0.6032
22.8914,208,0.6710
22.8958,152,0.4903
22.9001,108,0.3484
22.9044,150,0.4839
22.9108,228,0.7355
22.9153,182,0.5871
22.9195,136,0.4387
22.9239,175,0.5645
22.9282,259,0.8355
22.9325,268,0.8645
22.9368,202,0.6516
22.9411,175,0.5645
22.9453,234,0.7548
22.9496,280,0.9032
22.9539,250,0.8065
22.9582,193,0.6226
22.9624,191,0.6161
22.9667,249,0.8032
22.9710,286,0.9226
22.9752,242,0.7806
22.9795,182,0.5871
22.9837,198,0.6387
22.9880,271,0.8742
22.9923,285,0.9194
22.9966,228,0.7355
23.0009,203,0.6548
23.0051,261,0.8419
23.0094,320,1.0323
23.0137,314,1.0129
23.0179,267,0.8613
23.0222,268,0.8645
23.0265,337,1.0871
23.0308,389,1.2548
23.0351,364,1.1742
23.0394,311,1.0032
23.0437,335,1.0806
23.0480,418,1.3484
23.0523,435,1.4032
23.0566,350,1.1290
23.0609,301,0.9710
23.0652,365,1.1774
23.0695,471,1.5194
23.0738,511,1.6484
23.0782,527,1.7000
23.0824,618,1.9935
23.0868,786,2.5355
23.0911,878,2.8323
23.0954,810,2.6129
23.0997,672,2.1677
23.1040,583,1.8806
23.1083,554,1.7871
23.1127,490,1.5806
23.1170,381,1.2290
23.1212,339,1.0935
23.1256,394,1.2710
23.1299,448,1.4452
23.1342,423,1.3645
23.1385,373,1.2032
23.1428,374,1.2065
23.1471,420,1.3548
23.1513,433,1.3968
23.1557,387,1.2484
23.1599,353,1.1387
23.1642,400,1.2903
23.1686,476,1.5355
23.1728,483,1.5581
23.1771,436,1.4065
23.1814,432,1.3935
23.1857,493,1.5903
23.1900,541,1.7452
23.1944,518,1.6710
23.1986,479,1.5452
23.2029,506,1.6323
23.2072,581,1.8742
23.2115,606,1.9548
23.2158,562,1.8129
23.2201,542,1.7484
23.2244,602,1.9419
23.2286,693,2.2355
23.2329,698,2.2516
23.2372,636,2.0516
23.2415,617,1.9903
23.2458,680,2.1935
23.2501,729,2.3516
23.2544,690,2.2258
23.2588,638,2.0581
23.2630,664,2.1419
23.2674,736,2.3742
23.2717,743,2.3968
23.2760,682,2.2000
23.2803,642,2.0710
23.2847,680,2.1935
23.2890,736,2.3742
23.2933,723,2.3323
23.2976,656,2.1161
23.3019,636,2.0516
23.3062,693,2.2355
23.3105,734,2.3677
23.3148,699,2.2548
23.3191,652,2.1032
23.3234,682,2.2000
23.3277,742,2.3935
23.3320,734,2.3677
23.3363,658,2.1226
23.3406,612,1.9742
23.3450,647,2.0871
23.3493,688,2.2194
23.3536,652,2.1032
23.3580,582,1.8774
23.3623,576,1.8581
23.3666,629,2.0290
23.3709,640,2.0645
23.3752,582,1.8774
23.3795,527,1.7000
23.3838,548,1.7677
23.3881,598,1.9290
23.3924,579,1.8677
23.3967,498,1.6065
23.4011,468,1.5097
23.4054,515,1.6613
23.4097,550,1.7742
23.4139,514,1.6581
23.4182,453,1.4613
23.4226,456,1.4710
23.4269,517,1.6677
23.4312,539,1.7387
23.4355,489,1.5774
23.4398,449,1.4484
23.4441,487,1.5710
23.4484,558,1.8000
23.4526,565,1.8226
23.4569,523,1.6871
23.4613,525,1.6935
23.4656,596,1.9226
23.4698,653,2.1065
23.4741,639,2.0613
23.4784,609,1.9645
23.4827,649,2.0935
23.4870,739,2.3839
23.4913,778,2.5097
23.4956,751,2.4226
23.4999,749,2.4161
23.5043,831,2.6806
23.5088,913,2.9452
23.5132,868,2.8000
23.5182,741,2.3903
23.5225,711,2.2935
23.5268,764,2.4645
23.5311,767,2.4742
23.5354,692,2.2323
23.5396,641,2.0677
23.5439,674,2.1742
23.5482,728,2.3484
23.5525,711,2.2935
23.5568,643,2.0742
23.5611,628,2.0258
23.5654,679,2.1903
23.5697,723,2.3323
23.5740,690,2.2258
23.5783,629,2.0290
23.5826,637,2.0548
23.5869,699,2.2548
23.5912,716,2.3097
23.5954,661,2.1323
23.5997,620,2.0000
23.6040,656,2.1161
23.6083,723,2.3323
23.6126,724,2.3355
23.6169,663,2.1387
23.6212,647,2.0871
23.6255,699,2.2548
23.6298,735,2.3710
23.6341,701,2.2613
23.6384,647,2.0871
23.6427,659,2.1258
23.6471,724,2.3355
23.6514,731,2.3581
23.6558,675,2.1774
23.6601,644,2.0774
23.6645,692,2.2323
23.6688,752,2.4258
23.6731,733,2.3645
23.6774,665,2.1452
23.6818,654,2.1097
23.6861,702,2.2645
23.6904,722,2.3290
23.6948,664,2.1419
23.6991,605,1.9516
23.7034,613,1.9774
23.7077,664,2.1419
23.7121,656,2.1161
23.7164,579,1.8677
23.7207,537,1.7323
23.7251,574,1.8516
23.7294,617,1.9903
23.7337,582,1.8774
23.7381,511,1.6484
23.7424,504,1.6258
23.7467,564,1.8194
23.7510,594,1.9161
23.7553,581,1.8742
23.7596,595,1.9194
23.7639,687,2.2161
23.7682,790,2.5484
23.7725,768,2.4774
23.7768,642,2.0710
23.7810,523,1.6871
23.7853,500,1.6129
23.7896,508,1.6387
23.7939,448,1.4452
23.7982,359,1.1581
23.8025,347,1.1194
23.8072,405,1.3065
23.8117,421,1.3581
23.8161,376,1.2129
23.8204,366,1.1806
23.8247,435,1.4032
23.8290,504,1.6258
23.8332,500,1.6129
23.8375,458,1.4774
23.8418,480,1.5484
23.8461,554,1.7871
23.8505,594,1.9161
23.8548,548,1.7677
23.8590,495,1.5968
23.8633,515,1.6613
23.8677,575,1.8548
23.8720,573,1.8484
23.8763,512,1.6516
23.8805,494,1.5935
23.8848,544,1.7548
23.8892,593,1.9129
23.8935,567,1.8290
23.8978,517,1.6677
23.9020,530,1.7097
23.9063,598,1.9290
23.9106,627,2.0226
23.9149,590,1.9032
23.9192,555,1.7903
23.9235,588,1.8968
23.9278,653,2.1065
23.9321,650,2.0968
23.9364,585,1.8871
23.9408,564,1.8194
23.9451,624,2.0129
23.9494,669,2.1581
23.9538,631,2.0355
23.9581,574,1.8516
23.9624,595,1.9194
23.9668,675,2.1774
23.9711,703,2.2677
23.9755,648,2.0903
23.9798,612,1.9742
23.9841,652,2.1032
23.9885,715,2.3065
23.9928,702,2.2645
23.9971,635,2.0484
24.0015,623,2.0097
24.0058,683,2.2032
24.0101,718,2.3161
24.0145,680,2.1935
24.0188,634,2.0452
24.0231,662,2.1355
24.0274,727,2.3452
24.0318,722,2.3290
24.0361,666,2.1484
24.0404,647,2.0871
24.0449,693,2.2355
24.0492,736,2.3742
24.0535,704,2.2710
24.0578,639,2.0613
24.0621,634,2.0452
24.0664,692,2.2323
24.0707,709,2.2871
24.0750,648,2.0903
24.0793,609,1.9645
24.0836,665,2.1452
24.0879,747,2.4097
24.0922,741,2.3903
24.0965,653,2.1065
24.1009,621,2.0032
24.1052,675,2.1774
24.1095,712,2.2968
24.1138,670,2.1613
24.1181,605,1.9516
24.1224,611,1.9710
24.1267,678,2.1871
24.1310,704,2.2710
24.1353,650,2.0968
24.1396,615,1.9839
24.1439,661,2.1323
24.1482,723,2.3323
24.1526,695,2.2419
24.1569,620,2.0000
24.1613,614,1.9806
24.1656,686,2.2129
24.1699,720,2.3226
24.1742,671,2.1645
24.1786,618,1.9935
24.1829,643,2.0742
24.1872,708,2.2839
24.1916,713,2.3000
24.1959,654,2.1097
24.2002,613,1.9774
24.2046,642,2.0710
24.2089,683,2.2032
24.2132,657,2.1194
24.2176,600,1.9355
24.2219,611,1.9710
24.2262,680,2.1935
24.2305,698,2.2516
24.2348,631,2.0355
24.2392,585,1.8871
24.2435,630,2.0323
24.2478,691,2.2290
24.2521,680,2.1935
24.2564,618,1.9935
24.2607,601,1.9387
24.2650,653,2.1065
24.2693,685,2.2097
24.2736,645,2.0806
24.2780,584,1.8839
24.2823,598,1.9290
24.2866,658,2.1226
24.2909,664,2.1419
24.2952,595,1.9194
24.2995,554,1.7871
24.3038,585,1.8871
24.3081,630,2.0323
24.3123,601,1.9387
24.3166,522,1.6839
24.3209,492,1.5871
24.3252,523,1.6871
24.3295,542,1.7484
24.3338,493,1.5903
24.3381,436,1.4065
24.3424,459,1.4806
24.3468,530,1.7097
24.3511,540,1.7419
24.3555,476,1.5355
24.3598,450,1.4516
24.3641,500,1.6129
24.3684,545,1.7581
24.3728,510,1.6452
24.3771,449,1.4484
24.3814,467,1.5065
24.3858,559,1.8032
24.3901,599,1.9323
24.3944,545,1.7581
24.3987,494,1.5935
24.4032,522,1.6839
24.4077,591,1.9065
24.4121,607,1.9581
24.4165,586,1.8903
24.4209,634,2.0452
24.4252,769,2.4806
24.4295,850,2.7419
24.4339,777,2.5065
24.4382,630,2.0323
24.4426,544,1.7548
24.4469,543,1.7516
24.4512,510,1.6452
24.4555,422,1.3613
24.4598,371,1.1968
24.4641,408,1.3161
24.4684,458,1.4774
24.4727,446,1.4387
24.4770,402,1.2968
24.4813,415,1.3387
24.4856,484,1.5613
24.4899,513,1.6548
24.4942,466,1.5032
24.4985,413,1.3323
24.5028,442,1.4258
24.5071,509,1.6419
24.5114,502,1.6194
24.5157,425,1.3710
24.5199,388,1.2516
24.5243,434,1.4000
24.5285,474,1.5290
24.5328,447,1.4419
24.5371,394,1.2710
24.5414,405,1.3065
24.5458,479,1.5452
24.5502,539,1.7387
24.5545,565,1.8226
24.5588,535,1.7258
24.5631,512,1.6516
24.5675,505,1.6290
24.5718,506,1.6323
24.5761,508,1.6387
24.5805,510,1.6452
24.5848,511,1.6484
24.5892,510,1.6452
24.5935,509,1.6419
24.5978,510,1.6452
24.6022,511,1.6484
24.6065,511,1.6484
24.6108,509,1.6419
24.6152,509,1.6419
24.6195,510,1.6452
24.6238,511,1.6484
24.6282,510,1.6452
24.6325,509,1.6419
24.6368,510,1.6452
24.6412,510,1.6452
24.6458,510,1.6452
24.6501,510,1.6452
24.6543,509,1.6419
24.6586,510,1.6452
24.6629,510,1.6452
24.6671,511,1.6484
24.6714,509,1.6419
24.6757,510,1.6452
24.6799,510,1.6452
24.6843,509,1.6419
24.6886,508,1.6387
24.6929,509,1.6419
24.6972,510,1.6452
24.7014,510,1.6452
24.7090,510,1.6452
24.7134,509,1.6419
24.7177,510,1.6452
24.7220,546,1.7613
24.7263,585,1.8871
24.7306,561,1.8097
24.7349,488,1.5742
24.7391,462,1.4903
24.7434,504,1.6258
24.7477,554,1.7871
24.7521,542,1.7484
24.7563,484,1.5613
24.7606,499,1.6097
24.7649,577,1.8613
24.7692,620,2.0000
24.7735,585,1.8871
24.7778,547,1.7645
24.7821,587,1.8935
24.7864,653,2.1065
24.7906,656,2.1161
24.7949,599,1.9323
24.7992,580,1.8710
24.8035,632,2.0387
24.8081,687,2.2161
24.8124,663,2.1387
24.8167,599,1.9323
24.8209,592,1.9097
24.8252,646,2.0839
24.8294,668,2.1548
24.8337,616,1.9871
24.8379,566,1.8258
24.8422,596,1.9226
24.8465,657,2.1194
24.8508,651,2.1000
24.8551,589,1.9000
24.8594,575,1.8548
24.8637,622,2.0065
24.8679,658,2.1226
24.8722,625,2.0161
24.8765,556,1.7935
24.8808,553,1.7839
24.8851,620,2.0000
24.8893,641,2.0677
24.8942,567,1.8290
24.8985,519,1.6742
24.9028,554,1.7871
24.9071,603,1.9452
24.9113,582,1.8774
24.9156,533,1.7194
24.9199,549,1.7710
24.9242,621,2.0032
24.9284,656,2.1161
24.9327,620,2.0000
24.9370,564,1.8194
24.9413,581,1.8742
24.9456,654,2.1097
24.9499,675,2.1774
24.9541,625,2.0161
24.9584,601,1.9387
24.9627,647,2.0871
24.9669,700,2.2581
24.9712,678,2.1871
24.9755,620,2.0000
24.9797,617,1.9903
24.9840,673,2.1710
24.9883,704,2.2710
24.9926,657,2.1194
24.9969,606,1.9548
25.0012,617,1.9903
25.0055,675,2.1774
25.0097,682,2.2000
25.0140,623,2.0097
25.0183,581,1.8742
25.0228,618,1.9935
25.0272,681,2.1968
25.0316,669,2.1581
25.0366,571,1.8419
25.0421,552,1.7806
25.0465,588,1.8968
25.0509,568,1.8323
25.0551,495,1.5968
25.0594,479,1.5452
25.0637,577,1.8613
25.0679,703,2.2677
25.0722,801,2.5839
25.0765,859,2.7710
25.0808,986,3.1806
25.0850,1003,3.2355
25.0893,1003,3.2355
25.0935,1000,3.2258
25.0978,926,2.9871
25.1021,782,2.5226
25.1064,705,2.2742
25.1106,620,2.0000
25.1149,515,1.6613
25.1192,479,1.5452
25.1235,523,1.6871
25.1277,549,1.7710
25.1319,504,1.6258
25.1364,437,1.4097
25.1407,445,1.4355
25.1451,492,1.5871
25.1498,482,1.5548
25.1541,409,1.3194
25.1583,382,1.2323
25.1626,453,1.4613
25.1669,532,1.7161
25.1711,537,1.7323
25.1754,501,1.6161
25.1796,526,1.6968
25.1839,620,2.0000
25.1882,686,2.2129
25.1925,663,2.1387
25.1967,626,2.0194
25.2010,665,2.1452
25.2053,752,2.4258
25.2096,789,2.5452
25.2138,774,2.4968
25.2181,764,2.4645
25.2224,800,2.5806
25.2266,851,2.7452
25.2309,841,2.7129
25.2351,783,2.5258
25.2394,768,2.4774
25.2437,822,2.6516
25.2479,876,2.8258
25.2522,845,2.7258
25.2565,791,2.5516
25.2608,812,2.6194
25.2651,886,2.8581
25.2693,894,2.8839
25.2735,841,2.7129
25.2778,804,2.5935
25.2821,845,2.7258
25.2864,913,2.9452
25.2913,907,2.9258
25.2956,861,2.7774
25.2998,867,2.7968
25.3042,933,3.0097
25.3086,968,3.1226
25.3130,914,2.9484
25.3173,849,2.7387
25.3216,860,2.7742
25.3259,905,2.9194
25.3301,883,2.8484
25.3344,791,2.5516
25.3387,701,2.2613
25.3429,683,2.2032
25.3473,702,2.2645
25.3516,671,2.1645
25.3558,621,2.0032
25.3601,613,1.9774
25.3643,660,2.1290
25.3686,691,2.2290
25.3729,645,2.0806
25.3771,599,1.9323
25.3814,628,2.0258
25.3857,679,2.1903
25.3900,647,2.0871
25.3943,564,1.8194
25.3985,527,1.7000
25.4028,542,1.7484
25.4071,540,1.7419
25.4114,475,1.5323
25.4156,373,1.2032
25.4199,321,1.0355
25.4241,348,1.1226
25.4284,372,1.2000
25.4327,334,1.0774
25.4369,297,0.9581
25.4413,331,1.0677
25.4455,407,1.3129
25.4498,427,1.3774
25.4541,371,1.1968
25.4584,344,1.1097
25.4627,389,1.2548
25.4670,427,1.3774
25.4713,412,1.3290
25.4755,367,1.1839
25.4798,369,1.1903
25.4840,431,1.3903
25.4883,460,1.4839
25.4926,422,1.3613
25.4968,368,1.1871
25.5011,373,1.2032
25.5054,418,1.3484
25.5097,430,1.3871
25.5139,388,1.2516
25.5182,354,1.1419
25.5224,392,1.2645
25.5267,441,1.4226
25.5310,431,1.3903
25.5352,383,1.2355
25.5395,374,1.2065
25.5437,419,1.3516
25.5481,445,1.4355
25.5524,403,1.3000
25.5567,363,1.1710
25.5610,399,1.2871
25.5653,468,1.5097
25.5697,474,1.5290
25.5739,404,1.3032
25.5782,367,1.1839
25.5825,400,1.2903
25.5868,436,1.4065
25.5911,401,1.2935
25.5954,332,1.0710
25.5997,318,1.0258
25.6040,359,1.1581
25.6084,375,1.2097
25.6129,323,1.0419
25.6173,279,0.9000
25.6217,330,1.0645
25.6260,418,1.3484
25.6303,435,1.4032
25.6347,382,1.2323
25.6390,369,1.1903
25.6434,443,1.4290
25.6477,504,1.6258
25.6521,465,1.5000
25.6564,403,1.3000
25.6607,407,1.3129
25.6649,448,1.4452
25.6692,449,1.4484
25.6735,392,1.2645
25.6778,348,1.1226
25.6820,377,1.2161
25.6862,436,1.4065
25.6905,431,1.3903
25.6948,374,1.2065
25.6991,368,1.1871
25.7039,449,1.4484
25.7082,493,1.5903
25.7130,439,1.4161
25.7173,394,1.2710
25.7215,436,1.4065
25.7258,519,1.6742
25.7300,516,1.6645
25.7343,437,1.4097
25.7386,405,1.3065
25.7428,451,1.4548
25.7471,513,1.6548
25.7513,540,1.7419
25.7557,549,1.7710
25.7599,547,1.7645
25.7642,558,1.8000
25.7685,492,1.5871
25.7727,354,1.1419
25.7770,244,0.7871
25.7813,235,0.7581
25.7855,277,0.8935
25.7898,276,0.8903
25.7940,226,0.7290
25.7983,228,0.7355
25.8026,300,0.9677
25.8069,384,1.2387
25.8111,389,1.2548
25.8154,346,1.1161
25.8197,368,1.1871
25.8239,465,1.5000
25.8282,531,1.7129
25.8324,506,1.6323
25.8367,480,1.5484
25.8410,517,1.6677
25.8452,583,1.8806
25.8495,592,1.9097
25.8538,547,1.7645
25.8581,535,1.7258
25.8624,581,1.8742
25.8667,624,2.0129
25.8709,596,1.9226
25.8752,514,1.6581
25.8795,484,1.5613
25.8838,523,1.6871
25.8880,531,1.7129
25.8924,474,1.5290
25.8967,428,1.3806
25.9012,448,1.4452
25.9054,496,1.6000
25.9097,480,1.5484
25.9140,406,1.3097
25.9183,370,1.1935
25.9225,406,1.3097
25.9268,437,1.4097
25.9311,403,1.3000
25.9353,339,1.0935
25.9396,338,1.0903
25.9439,411,1.3258
25.9482,456,1.4710
25.9525,423,1.3645
25.9568,389,1.2548
25.9611,439,1.4161
25.9654,524,1.6903
25.9696,543,1.7516
25.9740,511,1.6484
25.9783,523,1.6871
25.9825,599,1.9323
25.9868,660,2.1290
25.9911,673,2.1710
25.9954,641,2.0677
25.9997,652,2.1032
26.0039,729,2.3516
26.0082,761,2.4548
26.0125,721,2.3258
26.0167,666,2.1484
26.0210,676,2.1806
26.0253,731,2.3581
26.0296,725,2.3387
26.0338,667,2.1516
26.0381,641,2.0677
26.0424,682,2.2000
26.0467,718,2.3161
26.0509,684,2.2065
26.0555,601,1.9387
26.0598,578,1.8645
26.0641,610,1.9677
26.0683,592,1.9097
26.0726,492,1.5871
26.0769,392,1.2645
26.0812,373,1.2032
26.0854,384,1.2387
26.0897,343,1.1065
26.0940,269,0.8677
26.0982,248,0.8000
26.1026,313,1.0097
26.1069,384,1.2387
26.1111,391,1.2613
26.1153,378,1.2194
26.1196,433,1.3968
26.1239,543,1.7516
26.1282,620,2.0000
26.1324,625,2.0161
26.1370,621,2.0032
26.1413,695,2.2419
26.1456,795,2.5645
26.1498,807,2.6032
26.1541,765,2.4677
26.1584,780,2.5161
26.1627,845,2.7258
26.1670,877,2.8290
26.1712,839,2.7065
26.1755,782,2.5226
26.1798,786,2.5355
26.1840,842,2.7161
26.1883,864,2.7871
26.1926,831,2.6806
26.1969,805,2.5968
26.2011,849,2.7387
26.2055,914,2.9484
26.2098,899,2.9000
26.2142,816,2.6323
26.2189,800,2.5806
26.2232,846,2.7290
26.2275,857,2.7645
26.2318,787,2.5387
26.2361,720,2.3226
26.2404,728,2.3484
26.2447,775,2.5000
26.2490,757,2.4419
26.2534,681,2.1968
26.2581,640,2.0645
26.2625,675,2.1774
26.2668,713,2.3000
26.2711,682,2.2000
26.2754,619,1.9968
26.2797,630,2.0323
26.2840,703,2.2677
26.2883,720,2.3226
26.2926,649,2.0935
26.2968,601,1.9387
26.3011,633,2.0419
26.3054,689,2.2226
26.3096,670,2.1613
26.3139,603,1.9452
26.3181,588,1.8968
26.3224,637,2.0548
26.3267,691,2.2290
26.3310,670,2.1613
26.3352,617,1.9903
26.3395,622,2.0065
26.3438,684,2.2065
26.3480,692,2.2323
26.3523,616,1.9871
26.3566,548,1.7677
26.3609,570,1.8387
26.3652,634,2.0452
26.3695,627,2.0226
26.3738,561,1.8097
26.3781,538,1.7355
26.3824,580,1.8710
26.3867,636,2.0516
26.3910,641,2.0677
26.3953,639,2.0613
