time_s,adc_raw,voltage
0.0000,491,1.5839
0.0147,795,2.5645
0.0191,907,2.9258
0.0235,964,3.1097
0.0279,830,2.6774
0.0324,617,1.9903
0.0368,500,1.6129
0.0412,510,1.6452
0.0457,550,1.7742
0.0501,524,1.6903
0.0545,491,1.5839
0.0589,525,1.6935
0.0633,584,1.8839
0.0676,567,1.8290
0.0720,490,1.5806
0.0764,450,1.4516
0.0808,502,1.6194
0.0852,551,1.7774
0.0896,533,1.7194
0.0940,500,1.6129
0.0984,519,1.6742
0.1028,564,1.8194
0.1072,545,1.7581
0.1117,476,1.5355
0.1161,453,1.4613
0.1205,517,1.6677
0.1249,555,1.7903
0.1293,523,1.6871
0.1338,462,1.4903
0.1381,465,1.5000
0.1425,520,1.6774
0.1469,522,1.6839
0.1512,461,1.4871
0.1556,425,1.3710
0.1600,476,1.5355
0.1644,534,1.7226
0.1687,520,1.6774
0.1731,488,1.5742
0.1776,507,1.6355
0.1820,550,1.7742
0.1863,559,1.8032
0.1908,512,1.6516
0.1953,487,1.5710
0.1999,547,1.7645
0.2048,604,1.9484
0.2098,556,1.7935
0.2144,504,1.6258
0.2191,538,1.7355
0.2239,609,1.9645
0.2288,586,1.8903
0.2336,527,1.7000
0.2385,557,1.7968
0.2434,642,2.0710
0.2483,618,1.9935
0.2527,538,1.7355
0.2571,532,1.7161
0.2615,588,1.8968
0.2660,611,1.9710
0.2704,556,1.7935
0.2747,508,1.6387
0.2791,548,1.7677
0.2836,600,1.9355
0.2880,588,1.8968
0.2924,524,1.6903
0.2967,518,1.6710
0.3011,571,1.8419
0.3055,569,1.8355
0.3098,481,1.5516
0.3142,422,1.3613
0.3186,457,1.4742
0.3230,527,1.7000
0.3273,525,1.6935
0.3317,465,1.5000
0.3361,448,1.4452
0.3404,504,1.6258
0.3448,525,1.6935
0.3491,473,1.5258
0.3535,417,1.3452
0.3579,433,1.3968
0.3622,484,1.5613
0.3666,487,1.5710
0.3710,442,1.4258
0.3754,411,1.3258
0.3798,449,1.4484
0.3842,505,1.6290
0.3885,503,1.6226
0.3929,464,1.4968
0.3973,482,1.5548
0.4017,528,1.7032
0.4062,532,1.7161
0.4106,488,1.5742
0.4150,465,1.5000
0.4195,513,1.6548
0.4239,552,1.7806
0.4283,524,1.6903
0.4327,470,1.5161
0.4371,465,1.5000
0.4415,526,1.6968
0.4459,560,1.8065
0.4503,519,1.6742
0.4547,496,1.6000
0.4591,523,1.6871
0.4635,556,1.7935
0.4679,519,1.6742
0.4722,435,1.4032
0.4766,415,1.3387
0.4811,461,1.4871
0.4855,477,1.5387
0.4898,431,1.3903
0.4942,410,1.3226
0.4985,473,1.5258
0.5029,524,1.6903
0.5073,511,1.6484
0.5116,477,1.5387
0.5160,484,1.5613
0.5203,536,1.7290
0.5247,551,1.7774
0.5291,503,1.6226
0.5335,456,1.4710
0.5381,479,1.5452
0.5426,521,1.6806
0.5470,488,1.5742
0.5514,426,1.3742
0.5557,396,1.2774
0.5601,439,1.4161
0.5644,463,1.4935
0.5688,443,1.4290
0.5732,426,1.3742
0.5776,477,1.5387
0.5820,555,1.7903
0.5863,558,1.8000
0.5906,514,1.6581
0.5950,510,1.6452
0.5994,570,1.8387
0.6037,608,1.9613
0.6081,570,1.8387
0.6124,517,1.6677
0.6167,538,1.7355
0.6211,603,1.9452
0.6255,609,1.9645
0.6298,532,1.7161
0.6343,483,1.5581
0.6386,523,1.6871
0.6429,566,1.8258
0.6473,541,1.7452
0.6516,472,1.5226
0.6559,457,1.4742
0.6603,494,1.5935
0.6647,511,1.6484
0.6690,473,1.5258
0.6734,445,1.4355
0.6777,487,1.5710
0.6821,543,1.7516
0.6865,527,1.7000
0.6909,459,1.4806
0.6952,453,1.4613
0.6996,516,1.6645
0.7039,557,1.7968
0.7083,518,1.6710
0.7126,470,1.5161
0.7170,473,1.5258
0.7214,507,1.6355
0.7257,512,1.6516
0.7301,494,1.5935
0.7345,538,1.7355
0.7389,694,2.2387
0.7433,854,2.7548
0.7476,895,2.8871
0.7520,789,2.5452
0.7563,640,2.0645
0.7607,562,1.8129
0.7651,518,1.6710
0.7695,435,1.4032
0.7738,393,1.2677
0.7782,436,1.4065
0.7826,496,1.6000
0.7869,479,1.5452
0.7915,413,1.3323
0.7959,394,1.2710
0.8002,450,1.4516
0.8046,478,1.5419
0.8090,439,1.4161
0.8133,398,1.2839
0.8176,425,1.3710
0.8223,478,1.5419
0.8266,466,1.5032
0.8310,419,1.3516
0.8354,410,1.3226
0.8397,467,1.5065
0.8441,511,1.6484
0.8484,466,1.5032
0.8528,413,1.3323
0.8571,454,1.4645
0.8614,525,1.6935
0.8658,524,1.6903
0.8702,459,1.4806
0.8746,438,1.4129
0.8791,495,1.5968
0.8835,529,1.7065
0.8878,485,1.5645
0.8922,407,1.3129
0.8965,406,1.3097
0.9009,459,1.4806
0.9052,471,1.5194
0.9096,436,1.4065
0.9140,418,1.3484
0.9183,489,1.5774
0.9227,569,1.8355
0.9275,549,1.7710
0.9319,494,1.5935
0.9363,511,1.6484
0.9406,577,1.8613
0.9449,588,1.8968
0.9493,528,1.7032
0.9536,482,1.5548
0.9579,518,1.6710
0.9623,573,1.8484
0.9667,579,1.8677
0.9711,551,1.7774
0.9754,544,1.7548
0.9798,603,1.9452
0.9841,623,2.0097
0.9885,577,1.8613
0.9928,529,1.7065
0.9978,539,1.7387
1.0021,580,1.8710
1.0065,555,1.7903
1.0111,483,1.5581
1.0154,462,1.4903
1.0198,511,1.6484
1.0245,531,1.7129
1.0290,476,1.5355
1.0333,445,1.4355
1.0377,475,1.5323
1.0420,516,1.6645
1.0463,501,1.6161
1.0506,434,1.4000
1.0550,411,1.3258
1.0593,470,1.5161
1.0637,503,1.6226
1.0680,467,1.5065
1.0729,431,1.3903
1.0773,446,1.4387
1.0816,495,1.5968
1.0860,489,1.5774
1.0903,443,1.4290
1.0947,429,1.3839
1.0991,471,1.5194
1.1034,494,1.5935
1.1078,456,1.4710
1.1121,408,1.3161
1.1165,432,1.3935
1.1208,500,1.6129
1.1257,525,1.6935
1.1301,479,1.5452
1.1348,442,1.4258
1.1392,493,1.5903
1.1435,538,1.7355
1.1479,506,1.6323
1.1522,462,1.4903
1.1565,495,1.5968
1.1609,558,1.8000
1.1652,555,1.7903
1.1695,486,1.5677
1.1738,448,1.4452
1.1782,485,1.5645
1.1825,524,1.6903
1.1869,497,1.6032
1.1912,450,1.4516
1.1955,460,1.4839
1.1999,507,1.6355
1.2043,525,1.6935
1.2086,492,1.5871
1.2130,463,1.4935
1.2173,503,1.6226
1.2216,561,1.8097
1.2260,548,1.7677
1.2310,470,1.5161
1.2354,458,1.4774
1.2398,514,1.6581
1.2443,547,1.7645
1.2487,506,1.6323
1.2532,461,1.4871
1.2578,483,1.5581
1.2638,518,1.6710
1.2682,482,1.5548
1.2726,449,1.4484
1.2775,494,1.5935
1.2819,538,1.7355
1.2863,522,1.6839
1.2906,470,1.5161
1.2950,458,1.4774
1.2994,509,1.6419
1.3037,519,1.6742
1.3081,458,1.4774
1.3126,405,1.3065
1.3171,409,1.3194
1.3216,443,1.4290
1.3261,402,1.2968
1.3305,333,1.0742
1.3349,342,1.1032
1.3393,420,1.3548
1.3437,459,1.4806
1.3481,400,1.2903
1.3526,348,1.1226
1.3572,385,1.2419
1.3617,441,1.4226
1.3668,431,1.3903
1.3712,406,1.3097
1.3755,426,1.3742
1.3799,472,1.5226
1.3843,486,1.5677
1.3887,429,1.3839
1.3932,396,1.2774
1.3977,450,1.4516
1.4022,498,1.6065
1.4067,465,1.5000
1.4111,401,1.2935
1.4154,431,1.3903
1.4198,537,1.7323
1.4244,633,2.0419
1.4292,693,2.2355
1.4336,780,2.5161
1.4380,895,2.8871
1.4426,870,2.8065
1.4471,691,2.2290
1.4515,528,1.7032
1.4560,472,1.5226
1.4606,504,1.6258
1.4658,496,1.6000
1.4702,463,1.4935
1.4747,460,1.4839
1.4796,522,1.6839
1.4840,534,1.7226
1.4884,490,1.5806
1.4928,464,1.4968
1.4972,497,1.6032
1.5016,544,1.7548
1.5068,508,1.6387
1.5113,449,1.4484
1.5158,456,1.4710
1.5202,518,1.6710
1.5247,542,1.7484
1.5292,516,1.6645
1.5348,498,1.6065
1.5392,564,1.8194
1.5436,608,1.9613
1.5483,593,1.9129
1.5527,596,1.9226
1.5570,674,2.1742
1.5613,748,2.4129
1.5657,747,2.4097
1.5701,694,2.2387
1.5745,680,2.1935
1.5789,719,2.3194
1.5833,746,2.4065
1.5877,701,2.2613
1.5921,647,2.0871
1.5964,658,2.1226
1.6008,699,2.2548
1.6051,683,2.2032
1.6100,609,1.9645
1.6143,607,1.9581
1.6188,659,2.1258
1.6231,679,2.1903
1.6276,637,2.0548
1.6320,591,1.9065
1.6364,613,1.9774
1.6408,663,2.1387
1.6451,656,2.1161
1.6495,599,1.9323
1.6540,574,1.8516
1.6584,624,2.0129
1.6628,660,2.1290
1.6672,629,2.0290
1.6718,580,1.8710
1.6761,610,1.9677
1.6805,650,2.0968
1.6848,636,2.0516
1.6892,578,1.8645
1.6936,544,1.7548
1.6980,574,1.8516
1.7024,603,1.9452
1.7068,568,1.8323
1.7112,515,1.6613
1.7155,507,1.6355
1.7199,541,1.7452
1.7243,542,1.7484
1.7287,486,1.5677
1.7335,451,1.4548
1.7379,488,1.5742
1.7423,514,1.6581
1.7467,489,1.5774
1.7510,459,1.4806
1.7555,497,1.6032
1.7599,552,1.7806
1.7644,539,1.7387
1.7688,483,1.5581
1.7732,466,1.5032
1.7775,512,1.6516
1.7823,550,1.7742
1.7866,500,1.6129
1.7910,429,1.3839
1.7953,417,1.3452
1.7996,479,1.5452
1.8039,518,1.6710
1.8083,481,1.5516
1.8126,443,1.4290
1.8169,467,1.5065
1.8212,494,1.5935
1.8255,474,1.5290
1.8298,432,1.3935
1.8341,433,1.3968
1.8385,463,1.4935
1.8428,496,1.6000
1.8471,473,1.5258
1.8514,426,1.3742
1.8557,448,1.4452
1.8606,513,1.6548
1.8650,497,1.6032
1.8693,445,1.4355
1.8736,446,1.4387
1.8779,504,1.6258
1.8822,537,1.7323
1.8865,501,1.6161
1.8908,457,1.4742
1.8951,474,1.5290
1.8994,520,1.6774
1.9038,527,1.7000
1.9083,476,1.5355
1.9130,448,1.4452
1.9190,493,1.5903
1.9233,497,1.6032
1.9276,442,1.4258
1.9319,403,1.3000
1.9362,423,1.3645
1.9405,484,1.5613
1.9448,504,1.6258
1.9491,480,1.5484
1.9535,473,1.5258
1.9578,510,1.6452
1.9621,531,1.7129
1.9665,515,1.6613
1.9707,486,1.5677
1.9750,517,1.6677
1.9792,567,1.8290
1.9837,564,1.8194
1.9880,500,1.6129
1.9922,468,1.5097
1.9965,497,1.6032
2.0007,543,1.7516
2.0050,554,1.7871
2.0092,506,1.6323
2.0134,485,1.5645
2.0176,519,1.6742
2.0219,549,1.7710
2.0261,529,1.7065
2.0304,482,1.5548
2.0346,489,1.5774
2.0389,543,1.7516
2.0431,554,1.7871
2.0473,500,1.6129
2.0516,445,1.4355
2.0558,455,1.4677
2.0601,498,1.6065
2.0651,470,1.5161
2.0694,418,1.3484
2.0738,417,1.3452
2.0781,481,1.5516
2.0824,515,1.6613
2.0868,461,1.4871
2.0911,408,1.3161
2.0953,428,1.3806
2.0996,483,1.5581
2.1040,467,1.5065
2.1084,398,1.2839
2.1132,382,1.2323
2.1176,458,1.4774
2.1224,577,1.8613
2.1268,658,2.1226
2.1312,754,2.4323
2.1356,861,2.7774
2.1400,853,2.7516
2.1445,692,2.2323
2.1489,497,1.6032
2.1531,394,1.2710
2.1573,405,1.3065
2.1615,453,1.4613
2.1657,441,1.4226
2.1700,394,1.2710
2.1742,394,1.2710
2.1784,447,1.4419
2.1826,470,1.5161
2.1868,429,1.3839
2.1911,393,1.2677
2.1953,412,1.3290
2.1995,477,1.5387
2.2040,492,1.5871
2.2083,444,1.4323
2.2140,427,1.3774
2.2183,497,1.6032
2.2225,536,1.7290
2.2268,493,1.5903
2.2311,452,1.4581
2.2353,464,1.4968
2.2395,504,1.6258
2.2438,498,1.6065
2.2480,439,1.4161
2.2523,421,1.3581
2.2566,476,1.5355
2.2610,532,1.7161
2.2655,514,1.6581
2.2698,457,1.4742
2.2741,448,1.4452
2.2784,487,1.5710
2.2828,513,1.6548
2.2871,478,1.5419
2.2914,433,1.3968
2.2957,452,1.4581
2.3000,506,1.6323
2.3043,496,1.6000
2.3087,446,1.4387
2.3130,430,1.3871
2.3173,478,1.5419
2.3216,507,1.6355
2.3259,479,1.5452
2.3301,447,1.4419
2.3345,452,1.4581
2.3388,499,1.6097
2.3432,513,1.6548
2.3476,467,1.5065
2.3519,436,1.4065
2.3561,468,1.5097
2.3604,513,1.6548
2.3647,492,1.5871
2.3689,436,1.4065
2.3732,439,1.4161
2.3775,516,1.6645
2.3818,584,1.8839
2.3860,583,1.8806
2.3903,557,1.7968
2.3947,565,1.8226
2.3990,607,1.9581
2.4034,596,1.9226
2.4077,527,1.7000
2.4120,480,1.5484
2.4163,518,1.6710
2.4205,572,1.8452
2.4248,572,1.8452
2.4291,515,1.6613
2.4334,494,1.5935
2.4376,533,1.7194
2.4419,564,1.8194
2.4462,531,1.7129
2.4504,483,1.5581
2.4547,488,1.5742
2.4589,523,1.6871
2.4631,527,1.7000
2.4674,489,1.5774
2.4716,465,1.5000
2.4759,511,1.6484
2.4801,566,1.8258
2.4843,576,1.8581
2.4885,547,1.7645
2.4928,531,1.7129
2.4970,560,1.8065
2.5013,590,1.9032
2.5055,552,1.7806
2.5097,470,1.5161
2.5140,442,1.4258
2.5183,504,1.6258
2.5226,553,1.7839
2.5270,526,1.6968
2.5313,511,1.6484
2.5357,564,1.8194
2.5401,600,1.9355
2.5447,576,1.8581
2.5492,509,1.6419
2.5537,499,1.6097
2.5581,553,1.7839
2.5625,588,1.8968
2.5669,555,1.7903
2.5712,516,1.6645
2.5756,548,1.7677
2.5801,598,1.9290
2.5845,601,1.9387
2.5890,560,1.8065
2.5933,549,1.7710
2.5976,583,1.8806
2.6020,596,1.9226
2.6064,543,1.7516
2.6108,495,1.5968
2.6152,512,1.6516
2.6196,551,1.7774
2.6240,538,1.7355
2.6284,476,1.5355
2.6327,449,1.4484
2.6371,497,1.6032
2.6415,526,1.6968
2.6459,492,1.5871
2.6503,457,1.4742
2.6548,497,1.6032
2.6593,553,1.7839
2.6637,549,1.7710
2.6681,496,1.6000
2.6725,471,1.5194
2.6769,508,1.6387
2.6813,553,1.7839
2.6857,539,1.7387
2.6901,504,1.6258
2.6946,523,1.6871
2.6990,591,1.9065
2.7035,601,1.9387
2.7079,541,1.7452
2.7123,510,1.6452
2.7167,541,1.7452
2.7211,572,1.8452
2.7255,554,1.7871
2.7298,520,1.6774
2.7342,544,1.7548
2.7386,604,1.9484
2.7430,612,1.9742
2.7474,564,1.8194
2.7518,541,1.7452
2.7561,575,1.8548
2.7605,597,1.9258
2.7649,549,1.7710
2.7692,470,1.5161
2.7736,478,1.5419
2.7780,562,1.8129
2.7824,611,1.9710
2.7867,574,1.8516
2.7911,533,1.7194
2.7954,546,1.7613
2.7998,576,1.8581
2.8041,554,1.7871
2.8085,492,1.5871
2.8129,477,1.5387
2.8173,513,1.6548
2.8217,545,1.7581
2.8261,500,1.6129
2.8304,457,1.4742
2.8347,474,1.5290
2.8395,523,1.6871
2.8438,514,1.6581
2.8481,474,1.5290
2.8524,521,1.6806
2.8567,677,2.1839
2.8611,847,2.7323
2.8654,910,2.9355
2.8697,886,2.8581
2.8740,809,2.6097
2.8783,738,2.3806
2.8826,632,2.0387
2.8869,497,1.6032
2.8915,426,1.3742
2.8957,464,1.4968
2.8999,515,1.6613
2.9042,512,1.6516
2.9084,476,1.5355
2.9127,478,1.5419
2.9170,538,1.7355
2.9212,582,1.8774
2.9255,548,1.7677
2.9297,507,1.6355
2.9339,524,1.6903
2.9382,579,1.8677
2.9426,573,1.8484
2.9470,502,1.6194
2.9515,464,1.4968
2.9560,514,1.6581
2.9604,566,1.8258
2.9648,555,1.7903
2.9692,506,1.6323
2.9736,510,1.6452
2.9780,553,1.7839
2.9824,555,1.7903
2.9875,493,1.5903
2.9919,485,1.5645
2.9962,546,1.7613
3.0007,592,1.9097
3.0051,556,1.7935
3.0095,513,1.6548
3.0138,544,1.7548
3.0182,604,1.9484
3.0226,609,1.9645
3.0270,543,1.7516
3.0315,512,1.6516
3.0358,555,1.7903
3.0402,595,1.9194
3.0446,573,1.8484
3.0489,525,1.6935
3.0533,532,1.7161
3.0577,598,1.9290
3.0621,618,1.9935
3.0665,562,1.8129
3.0709,514,1.6581
3.0753,565,1.8226
3.0796,626,2.0194
3.0841,622,2.0065
3.0885,558,1.8000
3.0929,541,1.7452
3.0979,601,1.9387
3.1023,624,2.0129
3.1074,571,1.8419
3.1118,561,1.8097
3.1162,609,1.9645
3.1206,644,2.0774
3.1249,606,1.9548
3.1293,552,1.7806
3.1338,573,1.8484
3.1381,623,2.0097
3.1425,600,1.9355
3.1472,535,1.7258
3.1516,508,1.6387
3.1559,545,1.7581
3.1603,581,1.8742
3.1647,548,1.7677
3.1690,494,1.5935
3.1734,490,1.5806
3.1778,537,1.7323
3.1821,544,1.7548
3.1865,481,1.5516
3.1908,447,1.4419
3.1952,497,1.6032
3.1995,543,1.7516
3.2038,511,1.6484
3.2088,438,1.4129
3.2131,445,1.4355
3.2175,501,1.6161
3.2218,498,1.6065
3.2262,440,1.4194
3.2305,408,1.3161
3.2349,452,1.4581
3.2393,523,1.6871
3.2436,508,1.6387
3.2480,441,1.4226
3.2524,425,1.3710
3.2568,484,1.5613
3.2613,512,1.6516
3.2657,479,1.5452
3.2706,448,1.4452
3.2749,485,1.5645
3.2794,517,1.6677
3.2837,481,1.5516
3.2881,411,1.3258
3.2925,416,1.3419
3.2970,506,1.6323
3.3014,545,1.7581
3.3058,490,1.5806
3.3102,441,1.4226
3.3147,459,1.4806
3.3191,491,1.5839
3.3235,474,1.5290
3.3278,426,1.3742
3.3322,437,1.4097
3.3366,482,1.5548
3.3410,501,1.6161
3.3459,459,1.4806
3.3503,427,1.3774
3.3547,461,1.4871
3.3591,500,1.6129
3.3635,475,1.5323
3.3679,422,1.3613
3.3722,426,1.3742
3.3766,487,1.5710
3.3811,509,1.6419
3.3855,455,1.4677
3.3900,411,1.3258
3.3944,438,1.4129
3.3988,489,1.5774
3.4033,477,1.5387
3.4077,428,1.3806
3.4122,436,1.4065
3.4167,505,1.6290
3.4212,551,1.7774
3.4256,517,1.6677
3.4301,478,1.5419
3.4345,532,1.7161
3.4395,590,1.9032
3.4439,571,1.8419
3.4482,510,1.6452
3.4526,505,1.6290
3.4569,554,1.7871
3.4613,560,1.8065
3.4658,508,1.6387
3.4702,481,1.5516
3.4747,531,1.7129
3.4792,568,1.8323
3.4837,537,1.7323
3.4881,488,1.5742
3.4926,508,1.6387
3.4972,563,1.8161
3.5017,575,1.8548
3.5061,529,1.7065
3.5106,497,1.6032
3.5150,538,1.7355
3.5195,576,1.8581
3.5239,546,1.7613
3.5284,495,1.5968
3.5329,505,1.6290
3.5373,551,1.7774
3.5423,532,1.7161
3.5467,468,1.5097
3.5512,450,1.4516
3.5556,504,1.6258
3.5599,545,1.7581
3.5644,509,1.6419
3.5688,463,1.4935
3.5732,486,1.5677
3.5775,541,1.7452
3.5819,548,1.7677
3.5864,492,1.5871
3.5907,449,1.4484
3.5951,471,1.5194
3.5996,496,1.6000
3.6040,455,1.4677
3.6084,385,1.2419
3.6128,219,0.7065
3.6172,222,0.7161
3.6215,316,1.0194
3.6259,367,1.1839
3.6303,400,1.2903
3.6348,465,1.5000
3.6392,507,1.6355
3.6437,458,1.4774
3.6488,372,1.2000
3.6533,369,1.1903
3.6578,443,1.4290
3.6622,495,1.5968
3.6666,522,1.6839
3.6711,617,1.9903
3.6755,783,2.5258
3.6799,882,2.8452
3.6843,791,2.5516
3.6887,595,1.9194
3.6930,474,1.5290
3.6974,452,1.4581
3.7018,433,1.3968
3.7068,372,1.2000
3.7112,356,1.1484
3.7161,413,1.3323
3.7205,442,1.4258
3.7249,405,1.3065
3.7293,358,1.1548
3.7337,374,1.2065
3.7380,408,1.3161
3.7424,394,1.2710
3.7468,356,1.1484
3.7512,364,1.1742
3.7556,448,1.4452
3.7599,503,1.6226
3.7643,480,1.5484
3.7686,434,1.4000
3.7730,438,1.4129
3.7774,475,1.5323
3.7817,479,1.5452
3.7861,442,1.4258
3.7905,431,1.3903
3.7949,482,1.5548
3.7993,515,1.6613
3.8037,480,1.5484
3.8084,431,1.3903
3.8128,438,1.4129
3.8172,476,1.5355
3.8215,473,1.5258
3.8259,412,1.3290
3.8302,367,1.1839
3.8347,400,1.2903
3.8391,451,1.4548
3.8435,433,1.3968
3.8479,402,1.2968
3.8523,445,1.4355
3.8567,523,1.6871
3.8610,541,1.7452
3.8653,503,1.6226
3.8695,475,1.5323
3.8737,526,1.6968
3.8779,592,1.9097
3.8820,597,1.9258
3.8862,540,1.7419
3.8904,512,1.6516
3.8946,545,1.7581
3.8988,574,1.8516
3.9030,540,1.7419
3.9147,529,1.7065
3.9190,566,1.8258
3.9233,550,1.7742
3.9276,505,1.6290
3.9319,517,1.6677
3.9361,580,1.8710
3.9404,590,1.9032
3.9447,529,1.7065
3.9489,474,1.5290
3.9531,495,1.5968
3.9573,556,1.7935
3.9614,564,1.8194
3.9656,508,1.6387
3.9698,457,1.4742
3.9740,484,1.5613
3.9782,516,1.6645
3.9823,485,1.5645
3.9865,428,1.3806
3.9907,424,1.3677
3.9949,490,1.5806
3.9991,517,1.6677
4.0032,481,1.5516
4.0074,440,1.4194
4.0117,448,1.4452
4.0160,509,1.6419
4.0203,526,1.6968
4.0244,485,1.5645
4.0286,455,1.4677
4.0327,483,1.5581
4.0369,514,1.6581
4.0411,489,1.5774
4.0452,434,1.4000
4.0494,403,1.3000
4.0536,429,1.3839
4.0578,465,1.5000
4.0620,449,1.4484
4.0661,401,1.2935
4.0703,403,1.3000
4.0745,473,1.5258
4.0787,537,1.7323
4.0829,533,1.7194
4.0871,478,1.5419
4.0913,468,1.5097
4.0955,502,1.6194
4.0996,529,1.7065
4.1038,508,1.6387
4.1080,477,1.5387
4.1122,501,1.6161
4.1164,556,1.7935
4.1206,569,1.8355
4.1247,530,1.7097
4.1289,493,1.5903
4.1331,522,1.6839
4.1373,567,1.8290
4.1415,560,1.8065
4.1457,519,1.6742
4.1498,522,1.6839
4.1540,602,1.9419
4.1582,697,2.2484
4.1624,740,2.3871
4.1665,756,2.4387
4.1707,800,2.5806
4.1749,876,2.8258
4.1791,913,2.9452
4.1833,878,2.8323
4.1874,834,2.6903
4.1916,833,2.6871
4.1958,865,2.7903
4.2000,860,2.7742
4.2042,805,2.5968
4.2083,743,2.3968
4.2125,727,2.3452
4.2167,743,2.3968
4.2209,744,2.4000
4.2251,699,2.2548
4.2292,665,2.1452
4.2334,687,2.2161
4.2376,714,2.3032
4.2418,690,2.2258
4.2459,614,1.9806
4.2501,570,1.8387
4.2543,591,1.9065
4.2585,614,1.9806
4.2626,597,1.9258
4.2668,555,1.7903
4.2710,555,1.7903
4.2752,609,1.9645
4.2794,638,2.0581
4.2835,606,1.9548
4.2877,557,1.7968
4.2919,560,1.8065
4.2961,608,1.9613
4.3003,612,1.9742
4.3044,556,1.7935
4.3086,521,1.6806
4.3128,549,1.7710
4.3170,593,1.9129
4.3212,589,1.9000
4.3253,532,1.7161
4.3295,504,1.6258
4.3337,532,1.7161
4.3379,565,1.8226
4.3420,552,1.7806
4.3462,501,1.6161
4.3504,476,1.5355
4.3546,517,1.6677
4.3588,551,1.7774
4.3630,525,1.6935
4.3671,483,1.5581
4.3713,496,1.6000
4.3755,542,1.7484
4.3797,552,1.7806
4.3839,498,1.6065
4.3880,469,1.5129
4.3922,507,1.6355
4.3964,562,1.8129
4.4006,574,1.8516
4.4048,528,1.7032
4.4090,494,1.5935
4.4131,526,1.6968
4.4173,579,1.8677
4.4215,566,1.8258
4.4257,504,1.6258
4.4298,485,1.5645
4.4340,533,1.7194
4.4382,580,1.8710
4.4424,560,1.8065
4.4465,518,1.6710
4.4507,521,1.6806
4.4549,562,1.8129
4.4591,572,1.8452
4.4633,533,1.7194
4.4674,472,1.5226
4.4716,466,1.5032
4.4758,523,1.6871
4.4800,576,1.8581
4.4841,617,1.9903
4.4883,708,2.2839
4.4925,848,2.7355
4.4968,951,3.0677
4.5009,900,2.9032
4.5051,731,2.3581
4.5093,594,1.9161
4.5135,548,1.7677
4.5177,539,1.7387
4.5218,511,1.6484
4.5260,462,1.4903
4.5302,463,1.4935
4.5344,526,1.6968
4.5385,567,1.8290
4.5427,542,1.7484
4.5469,498,1.6065
4.5511,500,1.6129
4.5553,547,1.7645
4.5594,560,1.8065
4.5636,513,1.6548
4.5678,479,1.5452
4.5720,507,1.6355
4.5761,558,1.8000
4.5803,564,1.8194
4.5845,518,1.6710
4.5887,491,1.5839
4.5929,528,1.7032
4.5971,563,1.8161
4.6013,546,1.7613
4.6055,506,1.6323
4.6097,498,1.6065
4.6140,529,1.7065
4.6184,544,1.7548
4.6226,499,1.6097
4.6267,455,1.4677
4.6309,452,1.4581
4.6351,495,1.5968
4.6393,509,1.6419
4.6434,481,1.5516
4.6476,462,1.4903
4.6518,488,1.5742
4.6560,518,1.6710
4.6602,510,1.6452
4.6643,469,1.5129
4.6685,446,1.4387
4.6727,481,1.5516
4.6769,526,1.6968
4.6811,516,1.6645
4.6853,473,1.5258
4.6895,469,1.5129
4.6937,505,1.6290
4.6979,541,1.7452
4.7020,517,1.6677
4.7062,480,1.5484
4.7104,487,1.5710
4.7146,525,1.6935
4.7188,536,1.7290
4.7230,507,1.6355
4.7271,480,1.5484
4.7313,514,1.6581
4.7355,575,1.8548
4.7397,587,1.8935
4.7439,540,1.7419
4.7480,519,1.6742
4.7522,549,1.7710
4.7564,580,1.8710
4.7606,567,1.8290
4.7648,520,1.6774
4.7689,514,1.6581
4.7731,561,1.8097
4.7774,598,1.9290
4.7816,557,1.7968
4.7859,498,1.6065
4.7902,499,1.6097
4.7946,554,1.7871
4.7990,572,1.8452
4.8033,518,1.6710
4.8077,474,1.5290
4.8120,496,1.6000
4.8163,531,1.7129
4.8207,512,1.6516
4.8250,445,1.4355
4.8293,430,1.3871
4.8337,476,1.5355
4.8380,500,1.6129
4.8423,453,1.4613
4.8467,411,1.3258
4.8510,431,1.3903
4.8553,493,1.5903
4.8597,502,1.6194
4.8640,440,1.4194
4.8683,394,1.2710
4.8726,420,1.3548
4.8770,456,1.4710
4.8813,427,1.3774
4.8856,378,1.2194
4.8899,382,1.2323
4.8946,440,1.4194
4.8989,457,1.4742
4.9032,408,1.3161
4.9075,381,1.2290
4.9148,469,1.5129
4.9192,482,1.5548
4.9235,443,1.4290
4.9278,426,1.3742
4.9320,469,1.5129
4.9363,508,1.6387
4.9406,483,1.5581
4.9449,429,1.3839
4.9491,422,1.3613
4.9534,467,1.5065
4.9577,500,1.6129
4.9620,475,1.5323
4.9664,445,1.4355
4.9706,471,1.5194
4.9749,516,1.6645
4.9791,523,1.6871
4.9835,490,1.5806
4.9877,479,1.5452
4.9920,506,1.6323
4.9963,531,1.7129
5.0005,508,1.6387
5.0048,443,1.4290
5.0092,442,1.4258
5.0136,513,1.6548
5.0180,544,1.7548
5.0225,492,1.5871
5.0270,442,1.4258
5.0314,467,1.5065
5.0358,518,1.6710
5.0401,488,1.5742
5.0443,397,1.2806
5.0486,342,1.1032
5.0529,332,1.0710
5.0571,300,0.9677
5.0614,200,0.6452
5.0658,111,0.3581
5.0700,115,0.3710
5.0743,187,0.6032
5.0786,230,0.7419
5.0829,192,0.6194
5.0871,94,0.3032
5.0914,25,0.0806
5.0956,0,0.0000
5.0998,0,0.0000
5.1041,0,0.0000
5.1084,0,0.0000
5.1126,0,0.0000
5.1169,21,0.0677
5.1211,0,0.0000
5.1253,0,0.0000
5.1296,0,0.0000
5.1338,69,0.2226
5.1381,210,0.6774
5.1423,262,0.8452
5.1466,226,0.7290
5.1508,163,0.5258
5.1551,99,0.3194
5.1593,162,0.5226
5.1636,322,1.0387
5.1678,535,1.7258
5.1721,736,2.3742
5.1763,827,2.6677
5.1805,789,2.5452
5.1849,703,2.2677
5.1891,685,2.2097
5.1935,761,2.4548
5.1977,812,2.6194
5.2020,790,2.5484
5.2063,760,2.4516
5.2107,811,2.6161
5.2150,903,2.9129
5.2193,937,3.0226
5.2236,897,2.8935
5.2279,871,2.8097
5.2322,920,2.9677
5.2365,996,3.2129
5.2408,1001,3.2290
5.2450,1002,3.2323
5.2493,1004,3.2387
5.2537,1004,3.2387
5.2580,1004,3.2387
5.2623,1005,3.2419
5.2666,1004,3.2387
5.2709,1003,3.2355
5.2752,1004,3.2387
5.2795,1000,3.2258
5.2838,952,3.0710
5.2881,842,2.7161
5.2924,823,2.6548
5.2967,839,2.7065
5.3010,812,2.6194
5.3052,766,2.4710
5.3095,756,2.4387
5.3138,785,2.5323
5.3181,778,2.5097
5.3224,701,2.2613
5.3267,644,2.0774
5.3310,659,2.1258
5.3353,696,2.2452
5.3396,673,2.1710
5.3439,582,1.8774
5.3482,523,1.6871
5.3525,538,1.7355
5.3568,562,1.8129
5.3611,517,1.6677
5.3655,442,1.4258
5.3698,445,1.4355
5.3741,514,1.6581
5.3784,555,1.7903
5.3827,513,1.6548
5.3870,471,1.5194
5.3913,507,1.6355
5.3956,546,1.7613
5.3999,532,1.7161
5.4041,475,1.5323
5.4085,461,1.4871
5.4127,494,1.5935
5.4170,515,1.6613
5.4214,481,1.5516
5.4256,440,1.4194
5.4299,443,1.4290
5.4342,491,1.5839
5.4386,510,1.6452
5.4429,456,1.4710
5.4471,406,1.3097
5.4514,417,1.3452
5.4558,425,1.3710
5.4601,370,1.1935
5.4644,302,0.9742
5.4687,309,0.9968
5.4730,396,1.2774
5.4773,448,1.4452
5.4816,415,1.3387
5.4859,363,1.1710
5.4903,383,1.2355
5.4946,440,1.4194
5.4989,435,1.4032
5.5032,371,1.1968
5.5075,336,1.0839
5.5119,366,1.1806
5.5163,389,1.2548
5.5207,349,1.1258
5.5250,305,0.9839
5.5292,308,0.9935
5.5336,356,1.1484
5.5379,368,1.1871
5.5421,310,1.0000
5.5464,262,0.8452
5.5506,288,0.9290
5.5549,338,1.0903
5.5592,333,1.0742
5.5635,268,0.8645
5.5678,225,0.7258
5.5720,239,0.7710
5.5764,259,0.8355
5.5807,218,0.7032
5.5849,166,0.5355
5.5892,155,0.5000
5.5935,199,0.6419
5.5977,226,0.7290
5.6020,189,0.6097
5.6063,147,0.4742
5.6105,164,0.5290
5.6148,218,0.7032
5.6196,200,0.6452
5.6238,124,0.4000
5.6281,105,0.3387
5.6324,151,0.4871
5.6366,166,0.5355
5.6409,114,0.3677
5.6452,68,0.2194
5.6495,83,0.2677
5.6541,134,0.4323
5.6585,128,0.4129
5.6628,75,0.2419
5.6671,54,0.1742
5.6713,107,0.3452
5.6756,164,0.5290
5.6799,146,0.4710
5.6841,82,0.2645
5.6884,50,0.1613
5.6927,84,0.2710
5.6970,123,0.3968
5.7012,96,0.3097
5.7055,51,0.1645
5.7098,54,0.1742
5.7141,91,0.2935
5.7184,86,0.2774
5.7227,21,0.0677
5.7270,0,0.0000
5.7313,24,0.0774
5.7356,75,0.2419
5.7398,79,0.2548
5.7441,31,0.1000
5.7484,14,0.0452
5.7527,61,0.1968
5.7570,101,0.3258
5.7613,90,0.2903
5.7656,68,0.2194
5.7699,100,0.3226
5.7742,167,0.5387
5.7785,162,0.5226
5.7828,99,0.3194
5.7871,64,0.2065
5.7913,122,0.3935
5.7956,207,0.6677
5.7999,231,0.7452
5.8043,207,0.6677
5.8086,196,0.6323
5.8130,244,0.7871
5.8185,282,0.9097
5.8230,246,0.7935
5.8274,232,0.7484
5.8317,303,0.9774
5.8360,368,1.1871
5.8404,363,1.1710
5.8447,326,1.0516
5.8490,327,1.0548
5.8534,376,1.2129
5.8577,411,1.3258
5.8620,396,1.2774
5.8663,389,1.2548
5.8707,446,1.4387
5.8750,512,1.6516
5.8793,514,1.6581
5.8837,464,1.4968
5.8880,453,1.4613
5.8923,493,1.5903
5.8968,513,1.6548
5.9011,453,1.4613
5.9054,378,1.2194
5.9097,360,1.1613
5.9140,393,1.2677
5.9183,378,1.2194
5.9226,290,0.9355
5.9269,203,0.6548
5.9311,172,0.5548
5.9354,173,0.5581
5.9397,141,0.4548
5.9440,88,0.2839
5.9483,103,0.3323
5.9526,178,0.5742
5.9569,237,0.7645
5.9612,245,0.7903
5.9655,256,0.8258
5.9698,305,0.9839
5.9741,377,1.2161
5.9784,420,1.3548
5.9827,397,1.2806
5.9870,358,1.1548
5.9913,358,1.1548
5.9956,399,1.2871
6.0000,432,1.3935
6.0043,502,1.6194
6.0086,690,2.2258
6.0130,931,3.0032
6.0173,1000,3.2258
6.0216,999,3.2226
6.0260,972,3.1355
6.0303,884,2.8516
6.0347,804,2.5935
6.0390,684,2.2065
6.0433,552,1.7806
6.0476,541,1.7452
6.0520,677,2.1839
6.0563,824,2.6581
6.0606,851,2.7452
6.0649,797,2.5710
6.0693,813,2.6226
6.0736,902,2.9097
6.0779,948,3.0581
6.0823,930,3.0000
6.0866,920,2.9677
6.0909,960,3.0968
6.0952,994,3.2065
6.0996,988,3.1871
6.1040,943,3.0419
6.1083,924,2.9806
6.1126,968,3.1226
6.1169,992,3.2000
6.1212,969,3.1258
6.1255,931,3.0032
6.1298,931,3.0032
6.1341,951,3.0677
6.1384,940,3.0323
6.1427,880,2.8387
6.1470,855,2.7581
6.1512,888,2.8645
6.1555,893,2.8806
6.1598,835,2.6935
6.1641,760,2.4516
6.1684,752,2.4258
6.1727,809,2.6097
6.1770,842,2.7161
6.1813,803,2.5903
6.1856,762,2.4581
6.1899,785,2.5323
6.1942,844,2.7226
6.1985,835,2.6935
6.2028,770,2.4839
6.2071,740,2.3871
6.2115,787,2.5387
6.2158,828,2.6710
6.2201,783,2.5258
6.2245,693,2.2355
6.2288,669,2.1581
6.2332,704,2.2710
6.2375,700,2.2581
6.2418,654,2.1097
6.2461,630,2.0323
6.2505,668,2.1548
6.2548,705,2.2742
6.2591,677,2.1839
6.2634,626,2.0194
6.2678,634,2.0452
6.2721,703,2.2677
6.2764,726,2.3419
6.2808,654,2.1097
6.2851,565,1.8226
6.2894,540,1.7419
6.2937,571,1.8419
6.2981,567,1.8290
6.3024,491,1.5839
6.3067,437,1.4097
6.3110,462,1.4903
6.3154,505,1.6290
6.3197,487,1.5710
6.3239,433,1.3968
6.3282,430,1.3871
6.3325,480,1.5484
6.3368,517,1.6677
6.3411,491,1.5839
6.3454,452,1.4581
6.3497,482,1.5548
6.3540,536,1.7290
6.3583,540,1.7419
6.3626,497,1.6032
6.3668,484,1.5613
6.3711,544,1.7548
6.3755,601,1.9387
6.3797,588,1.8968
6.3840,547,1.7645
6.3883,554,1.7871
6.3926,615,1.9839
6.3969,656,2.1161
6.4012,627,2.0226
6.4055,605,1.9516
6.4098,652,2.1032
6.4142,713,2.3000
6.4186,705,2.2742
6.4231,640,2.0645
6.4274,621,2.0032
6.4318,675,2.1774
6.4361,701,2.2613
6.4405,668,2.1548
6.4448,622,2.0065
6.4491,646,2.0839
6.4534,704,2.2710
6.4578,735,2.3710
6.4621,702,2.2645
6.4665,671,2.1645
6.4708,685,2.2097
6.4755,718,2.3161
6.4799,694,2.2387
6.4843,644,2.0774
6.4886,647,2.0871
6.4929,671,2.1645
6.4975,665,2.1452
6.5018,617,1.9903
6.5062,581,1.8742
6.5106,615,1.9839
6.5149,647,2.0871
6.5192,598,1.9290
6.5236,530,1.7097
6.5279,540,1.7419
6.5322,611,1.9710
6.5364,644,2.0774
6.5407,593,1.9129
6.5451,545,1.7581
6.5494,591,1.9065
6.5536,655,2.1129
6.5579,645,2.0806
6.5622,571,1.8419
6.5666,530,1.7097
6.5709,578,1.8645
6.5752,633,2.0419
6.5795,623,2.0097
6.5838,572,1.8452
6.5881,566,1.8258
6.5924,635,2.0484
6.5967,667,2.1516
6.6010,624,2.0129
6.6053,579,1.8677
6.6096,600,1.9355
6.6139,648,2.0903
6.6182,642,2.0710
6.6225,577,1.8613
6.6268,534,1.7226
6.6311,587,1.8935
6.6354,644,2.0774
6.6397,635,2.0484
6.6440,597,1.9258
6.6483,596,1.9226
6.6526,643,2.0742
6.6569,645,2.0806
6.6612,576,1.8581
6.6655,548,1.7677
6.6700,604,1.9484
6.6743,657,2.1194
6.6786,634,2.0452
6.6829,573,1.8484
6.6873,556,1.7935
6.6916,605,1.9516
6.6958,624,2.0129
6.7001,585,1.8871
6.7044,556,1.7935
6.7088,603,1.9452
6.7133,684,2.2065
6.7177,703,2.2677
6.7221,649,2.0935
6.7265,626,2.0194
6.7308,653,2.1065
6.7351,673,2.1710
6.7394,636,2.0516
6.7437,575,1.8548
6.7480,563,1.8161
6.7523,631,2.0355
6.7566,669,2.1581
6.7609,632,2.0387
6.7652,576,1.8581
6.7695,567,1.8290
6.7738,591,1.9065
6.7781,578,1.8645
6.7824,532,1.7161
6.7867,511,1.6484
6.7910,563,1.8161
6.7953,613,1.9774
6.7996,571,1.8419
6.8039,494,1.5935
6.8082,483,1.5581
6.8125,515,1.6613
6.8169,523,1.6871
6.8212,492,1.5871
6.8256,485,1.5645
6.8299,520,1.6774
6.8342,545,1.7581
6.8385,505,1.6290
6.8427,454,1.4645
6.8470,501,1.6161
6.8514,665,2.1452
6.8557,823,2.6548
6.8599,891,2.8742
6.8642,884,2.8516
6.8691,829,2.6742
6.8734,735,2.3710
6.8777,579,1.8677
6.8820,443,1.4290
6.8863,410,1.3226
6.8906,484,1.5613
6.8949,540,1.7419
6.8992,513,1.6548
6.9035,456,1.4710
6.9078,458,1.4774
6.9121,510,1.6452
6.9164,514,1.6581
6.9207,463,1.4935
6.9250,431,1.3903
6.9294,480,1.5484
6.9337,531,1.7129
6.9380,518,1.6710
6.9423,459,1.4806
6.9466,437,1.4097
6.9509,486,1.5677
6.9552,518,1.6710
6.9595,491,1.5839
6.9637,463,1.4935
6.9680,495,1.5968
6.9724,549,1.7710
6.9767,558,1.8000
6.9810,507,1.6355
6.9853,482,1.5548
6.9896,524,1.6903
6.9939,589,1.9000
6.9982,585,1.8871
7.0025,544,1.7548
7.0068,543,1.7516
7.0111,588,1.8968
7.0154,625,2.0161
7.0197,608,1.9613
7.0240,573,1.8484
7.0283,597,1.9258
7.0326,640,2.0645
7.0369,636,2.0516
7.0412,579,1.8677
7.0455,540,1.7419
7.0498,589,1.9000
7.0541,646,2.0839
7.0584,621,2.0032
7.0627,558,1.8000
7.0670,536,1.7290
7.0713,589,1.9000
7.0756,630,2.0323
7.0799,590,1.9032
7.0842,556,1.7935
7.0885,593,1.9129
7.0928,651,2.1000
7.0971,664,2.1419
7.1014,618,1.9935
7.1057,596,1.9226
7.1100,655,2.1129
7.1143,698,2.2516
7.1186,660,2.1290
7.1231,590,1.9032
7.1275,588,1.8968
7.1318,633,2.0419
7.1361,657,2.1194
7.1404,611,1.9710
7.1447,565,1.8226
7.1489,594,1.9161
7.1532,625,2.0161
7.1576,584,1.8839
7.1619,523,1.6871
7.1661,499,1.6097
7.1708,540,1.7419
7.1751,565,1.8226
7.1794,543,1.7516
7.1837,513,1.6548
7.1880,533,1.7194
7.1923,586,1.8903
7.1967,583,1.8806
7.2009,523,1.6871
7.2052,473,1.5258
7.2095,495,1.5968
7.2138,551,1.7774
7.2181,550,1.7742
7.2224,514,1.6581
7.2267,512,1.6516
7.2310,557,1.7968
7.2353,580,1.8710
7.2397,529,1.7065
7.2440,461,1.4871
7.2482,465,1.5000
7.2525,503,1.6226
7.2569,494,1.5935
7.2612,443,1.4290
7.2654,426,1.3742
7.2697,474,1.5290
7.2741,519,1.6742
7.2784,493,1.5903
7.2827,435,1.4032
7.2870,427,1.3774
7.2913,482,1.5548
7.2956,504,1.6258
7.2999,461,1.4871
7.3042,412,1.3290
7.3085,433,1.3968
7.3128,478,1.5419
7.3181,452,1.4581
7.3225,390,1.2581
7.3268,371,1.1968
7.3311,415,1.3387
7.3354,456,1.4710
7.3397,435,1.4032
7.3440,404,1.3032
7.3483,417,1.3452
7.3526,451,1.4548
7.3569,449,1.4484
7.3612,397,1.2806
7.3655,372,1.2000
7.3698,422,1.3613
7.3741,476,1.5355
7.3784,457,1.4742
7.3827,415,1.3387
7.3870,426,1.3742
7.3913,479,1.5452
7.3959,479,1.5452
7.4002,399,1.2871
7.4045,341,1.1000
7.4089,377,1.2161
7.4131,462,1.4903
7.4175,485,1.5645
7.4218,445,1.4355
7.4261,424,1.3677
7.4304,463,1.4935
7.4347,494,1.5935
7.4390,455,1.4677
7.4433,421,1.3581
7.4476,458,1.4774
7.4519,522,1.6839
7.4562,531,1.7129
7.4605,468,1.5097
7.4648,418,1.3484
7.4691,439,1.4161
7.4734,483,1.5581
7.4777,469,1.5129
7.4820,411,1.3258
7.4863,392,1.2645
7.4906,445,1.4355
7.4949,485,1.5645
7.4992,444,1.4323
7.5035,406,1.3097
7.5078,429,1.3839
7.5121,495,1.5968
7.5164,520,1.6774
7.5207,482,1.5548
7.5254,441,1.4226
7.5303,461,1.4871
7.5346,494,1.5935
7.5389,476,1.5355
7.5433,438,1.4129
7.5476,446,1.4387
7.5518,484,1.5613
7.5561,460,1.4839
7.5604,385,1.2419
7.5647,350,1.1290
7.5690,400,1.2903
7.5733,460,1.4839
7.5776,434,1.4000
7.5819,368,1.1871
7.5863,372,1.2000
7.5906,455,1.4677
7.5949,505,1.6290
7.5991,461,1.4871
7.6034,404,1.3032
7.6078,416,1.3419
7.6121,461,1.4871
7.6173,440,1.4194
7.6218,397,1.2806
7.6262,426,1.3742
7.6310,486,1.5677
7.6353,499,1.6097
7.6396,453,1.4613
7.6439,411,1.3258
7.6482,434,1.4000
7.6525,487,1.5710
7.6568,492,1.5871
7.6615,432,1.3935
7.6658,401,1.2935
7.6701,439,1.4161
7.6744,473,1.5258
7.6788,446,1.4387
7.6831,405,1.3065
7.6874,427,1.3774
7.6917,495,1.5968
7.6960,509,1.6419
7.7003,436,1.4065
7.7047,398,1.2839
7.7091,476,1.5355
7.7134,598,1.9290
7.7176,674,2.1742
7.7220,733,2.3645
7.7263,833,2.6871
7.7306,920,2.9677
7.7350,852,2.7484
7.7392,659,2.1258
7.7435,502,1.6194
7.7479,467,1.5065
7.7521,495,1.5968
7.7564,491,1.5839
7.7607,451,1.4548
7.7650,445,1.4355
7.7693,486,1.5677
7.7736,521,1.6806
7.7779,501,1.6161
7.7822,464,1.4968
7.7866,465,1.5000
7.7909,518,1.6710
7.7952,543,1.7516
7.7995,499,1.6097
7.8037,473,1.5258
7.8080,526,1.6968
7.8124,586,1.8903
7.8167,577,1.8613
7.8209,521,1.6806
7.8252,489,1.5774
7.8296,523,1.6871
7.8339,562,1.8129
7.8382,544,1.7548
7.8425,499,1.6097
7.8468,512,1.6516
7.8511,587,1.8935
7.8554,621,2.0032
7.8597,556,1.7935
7.8640,497,1.6032
7.8683,535,1.7258
7.8726,604,1.9484
7.8769,607,1.9581
7.8812,541,1.7452
7.8855,511,1.6484
7.8898,554,1.7871
7.8941,582,1.8774
7.8984,538,1.7355
7.9027,476,1.5355
7.9070,491,1.5839
7.9113,564,1.8194
7.9156,607,1.9581
7.9199,578,1.8645
7.9242,566,1.8258
7.9287,602,1.9419
7.9330,645,2.0806
7.9373,636,2.0516
7.9416,587,1.8935
7.9459,573,1.8484
7.9502,606,1.9548
7.9545,639,2.0613
7.9588,608,1.9613
7.9631,574,1.8516
7.9678,606,1.9548
7.9722,640,2.0645
7.9765,609,1.9645
7.9808,551,1.7774
7.9851,535,1.7258
7.9894,602,1.9419
7.9937,637,2.0548
7.9980,595,1.9194
8.0023,540,1.7419
8.0066,534,1.7226
8.0109,560,1.8065
8.0152,548,1.7677
8.0195,488,1.5742
8.0238,441,1.4226
8.0281,454,1.4645
8.0324,485,1.5645
8.0367,465,1.5000
8.0410,412,1.3290
8.0453,399,1.2871
8.0496,440,1.4194
8.0539,471,1.5194
8.0582,440,1.4194
8.0625,396,1.2774
8.0668,415,1.3387
8.0711,473,1.5258
8.0754,485,1.5645
8.0798,426,1.3742
8.0841,382,1.2323
8.0884,420,1.3548
8.0927,472,1.5226
8.0970,446,1.4387
8.1013,390,1.2581
8.1056,382,1.2323
8.1099,426,1.3742
8.1148,445,1.4355
8.1191,414,1.3355
8.1234,397,1.2806
8.1276,447,1.4419
8.1320,511,1.6484
8.1363,507,1.6355
8.1406,446,1.4387
8.1449,420,1.3548
8.1492,456,1.4710
8.1535,489,1.5774
8.1578,458,1.4774
8.1621,403,1.3000
8.1664,404,1.3032
8.1707,447,1.4419
8.1750,455,1.4677
8.1793,409,1.3194
8.1836,379,1.2226
8.1879,432,1.3935
8.1922,487,1.5710
8.1966,462,1.4903
8.2008,405,1.3065
8.2051,390,1.2581
8.2095,452,1.4581
8.2140,494,1.5935
8.2185,453,1.4613
8.2229,426,1.3742
8.2272,481,1.5516
8.2315,561,1.8097
8.2358,581,1.8742
8.2402,522,1.6839
8.2445,469,1.5129
8.2488,503,1.6226
8.2531,558,1.8000
8.2574,540,1.7419
8.2617,492,1.5871
8.2660,515,1.6613
8.2703,565,1.8226
8.2746,577,1.8613
8.2789,542,1.7484
8.2832,514,1.6581
8.2876,542,1.7484
8.2919,588,1.8968
8.2962,572,1.8452
8.3005,502,1.6194
8.3048,486,1.5677
8.3091,541,1.7452
8.3134,589,1.9000
8.3177,562,1.8129
8.3220,506,1.6323
8.3263,518,1.6710
8.3306,596,1.9226
8.3349,622,2.0065
8.3397,558,1.8000
8.3440,523,1.6871
8.3483,562,1.8129
8.3525,610,1.9677
8.3568,586,1.8903
8.3612,547,1.7645
8.3655,554,1.7871
8.3697,606,1.9548
8.3740,629,2.0290
8.3783,588,1.8968
8.3826,548,1.7677
8.3870,557,1.7968
8.3913,592,1.9097
8.3956,592,1.9097
8.3999,564,1.8194
8.4042,554,1.7871
8.4085,591,1.9065
8.4128,616,1.9871
8.4171,592,1.9097
8.4214,550,1.7742
8.4257,550,1.7742
8.4300,594,1.9161
8.4343,600,1.9355
8.4386,547,1.7645
8.4429,504,1.6258
8.4472,532,1.7161
8.4515,573,1.8484
8.4558,556,1.7935
8.4601,506,1.6323
8.4644,491,1.5839
8.4687,533,1.7194
8.4730,580,1.8710
8.4773,548,1.7677
8.4816,467,1.5065
8.4859,450,1.4516
8.4902,534,1.7226
8.4945,630,2.0323
8.4988,684,2.2065
8.5032,762,2.4581
8.5074,865,2.7903
8.5118,897,2.8935
8.5163,746,2.4065
8.5206,551,1.7774
8.5249,454,1.4645
8.5292,461,1.4871
8.5335,480,1.5484
8.5379,456,1.4710
8.5422,431,1.3903
8.5465,447,1.4419
8.5508,491,1.5839
8.5551,486,1.5677
8.5593,413,1.3323
8.5641,370,1.1935
8.5684,418,1.3484
8.5727,467,1.5065
8.5770,442,1.4258
8.5813,390,1.2581
8.5856,404,1.3032
8.5900,437,1.4097
8.5943,402,1.2968
8.5986,315,1.0161
8.6029,264,0.8516
8.6072,325,1.0484
8.6115,419,1.3516
8.6158,440,1.4194
8.6201,398,1.2839
8.6244,379,1.2226
8.6287,429,1.3839
8.6331,458,1.4774
8.6380,400,1.2903
8.6425,348,1.1226
8.6469,381,1.2290
8.6512,437,1.4097
8.6555,455,1.4677
8.6598,430,1.3871
8.6641,429,1.3839
8.6684,476,1.5355
8.6727,501,1.6161
8.6770,453,1.4613
8.6813,395,1.2742
8.6855,402,1.2968
8.6899,460,1.4839
8.6942,480,1.5484
8.6984,440,1.4194
8.7027,415,1.3387
8.7070,468,1.5097
8.7113,526,1.6968
8.7156,505,1.6290
8.7199,417,1.3452
8.7242,376,1.2129
8.7285,400,1.2903
8.7328,402,1.2968
8.7371,347,1.1194
8.7414,276,0.8903
8.7457,286,0.9226
8.7500,380,1.2258
8.7542,441,1.4226
8.7585,423,1.3645
8.7628,394,1.2710
8.7671,429,1.3839
8.7714,482,1.5548
8.7757,480,1.5484
8.7800,426,1.3742
8.7843,407,1.3129
8.7886,446,1.4387
8.7929,453,1.4613
8.7972,362,1.1677
8.8015,247,0.7968
8.8058,193,0.6226
8.8101,181,0.5839
8.8144,142,0.4581
8.8186,48,0.1548
8.8229,39,0.1258
8.8272,201,0.6484
8.8315,394,1.2710
8.8358,459,1.4806
8.8401,412,1.3290
8.8445,379,1.2226
8.8488,411,1.3258
8.8532,455,1.4677
8.8575,445,1.4355
8.8618,429,1.3839
8.8662,467,1.5065
8.8705,521,1.6806
8.8749,513,1.6548
8.8792,454,1.4645
8.8835,428,1.3806
8.8878,485,1.5645
8.8922,532,1.7161
8.8965,511,1.6484
8.9009,468,1.5097
8.9052,475,1.5323
8.9095,522,1.6839
8.9139,540,1.7419
8.9182,507,1.6355
8.9225,486,1.5677
8.9268,522,1.6839
8.9312,565,1.8226
8.9355,574,1.8516
8.9398,561,1.8097
8.9441,585,1.8871
8.9484,655,2.1129
8.9527,705,2.2742
8.9570,693,2.2355
8.9613,677,2.1839
8.9655,718,2.3161
8.9698,806,2.6000
8.9741,843,2.7194
8.9784,816,2.6323
8.9827,793,2.5581
8.9870,837,2.7000
8.9913,904,2.9161
8.9956,936,3.0194
8.9999,924,2.9806
9.0042,940,3.0323
9.0085,997,3.2161
9.0128,1001,3.2290
9.0171,998,3.2194
9.0214,999,3.2226
9.0257,997,3.2161
9.0299,1001,3.2290
9.0342,999,3.2226
9.0385,999,3.2226
9.0429,998,3.2194
9.0472,1000,3.2258
9.0515,1001,3.2290
9.0559,1000,3.2258
9.0602,981,3.1645
9.0645,955,3.0806
9.0689,986,3.1806
9.0732,986,3.1806
9.0775,919,2.9645
9.0818,839,2.7065
9.0862,843,2.7194
9.0906,900,2.9032
9.0950,893,2.8806
9.0993,832,2.6839
9.1036,800,2.5806
9.1079,825,2.6613
9.1122,844,2.7226
9.1166,794,2.5613
9.1210,719,2.3194
9.1254,711,2.2935
9.1297,738,2.3806
9.1340,737,2.3774
9.1383,681,2.1968
9.1426,650,2.0968
9.1469,688,2.2194
9.1511,739,2.3839
9.1554,735,2.3710
9.1598,679,2.1903
9.1640,666,2.1484
9.1683,705,2.2742
9.1725,710,2.2903
9.1769,661,2.1323
9.1812,606,1.9548
9.1854,610,1.9677
9.1897,641,2.0677
9.1939,635,2.0484
9.1983,575,1.8548
9.2025,523,1.6871
9.2067,544,1.7548
9.2110,588,1.8968
9.2153,577,1.8613
9.2195,528,1.7032
9.2238,514,1.6581
9.2280,567,1.8290
9.2323,610,1.9677
9.2365,567,1.8290
9.2408,499,1.6097
9.2451,496,1.6000
9.2494,544,1.7548
9.2537,546,1.7613
9.2580,473,1.5258
9.2623,438,1.4129
9.2666,456,1.4710
9.2708,481,1.5516
9.2751,443,1.4290
9.2795,364,1.1742
9.2838,343,1.1065
9.2880,397,1.2806
9.2924,430,1.3871
9.2967,390,1.2581
9.3010,344,1.1097
9.3053,363,1.1710
9.3096,431,1.3903
9.3139,438,1.4129
9.3181,362,1.1677
9.3224,290,0.9355
9.3268,298,0.9613
9.3310,330,1.0645
9.3353,336,1.0839
9.3396,338,1.0903
9.3439,427,1.3774
9.3481,598,1.9290
9.3524,740,2.3871
9.3566,756,2.4387
9.3610,638,2.0581
9.3652,497,1.6032
9.3695,413,1.3323
9.3737,347,1.1194
9.3780,266,0.8581
9.3823,237,0.7645
9.3865,289,0.9323
9.3914,350,1.1290
9.3957,332,1.0710
9.4000,293,0.9452
9.4043,312,1.0065
9.4085,366,1.1806
9.4128,382,1.2323
9.4172,339,1.0935
9.4217,287,0.9258
9.4261,302,0.9742
9.4304,350,1.1290
9.4347,339,1.0935
9.4390,307,0.9903
9.4433,306,0.9871
9.4476,362,1.1677
9.4519,406,1.3097
9.4562,390,1.2581
9.4604,352,1.1355
9.4648,363,1.1710
9.4690,400,1.2903
9.4733,383,1.2355
9.4775,314,1.0129
9.4818,284,0.9161
9.4861,332,1.0710
9.4904,392,1.2645
9.4947,379,1.2226
9.4990,325,1.0484
9.5033,297,0.9581
9.5076,340,1.0968
9.5118,376,1.2129
9.5161,328,1.0581
9.5206,261,0.8419
9.5249,281,0.9065
9.5291,351,1.1323
9.5334,377,1.2161
9.5377,337,1.0871
9.5419,307,0.9903
9.5463,346,1.1161
9.5505,387,1.2484
9.5548,370,1.1935
9.5590,328,1.0581
9.5633,327,1.0548
9.5676,362,1.1677
9.5719,371,1.1968
9.5761,322,1.0387
9.5804,283,0.9129
9.5847,307,0.9903
9.5890,368,1.1871
9.5932,391,1.2613
9.5976,374,1.2065
9.6022,369,1.1903
9.6065,392,1.2645
9.6108,417,1.3452
9.6150,404,1.3032
9.6193,344,1.1097
9.6236,307,0.9903
9.6279,323,1.0419
9.6321,340,1.0968
9.6364,312,1.0065
9.6410,270,0.8710
9.6453,292,0.9419
9.6496,333,1.0742
9.6538,313,1.0097
9.6581,246,0.7935
9.6623,211,0.6806
9.6666,241,0.7774
9.6709,274,0.8839
9.6752,264,0.8516
9.6794,229,0.7387
9.6837,223,0.7194
9.6880,245,0.7903
9.6922,239,0.7710
9.6966,188,0.6065
9.7008,169,0.5452
9.7051,220,0.7097
9.7093,288,0.9290
9.7136,297,0.9581
9.7179,257,0.8290
9.7221,238,0.7677
9.7264,272,0.8774
9.7307,302,0.9742
9.7350,284,0.9161
9.7392,250,0.8065
9.7435,255,0.8226
9.7478,303,0.9774
9.7521,327,1.0548
9.7564,283,0.9129
9.7606,249,0.8032
9.7653,293,0.9452
9.7696,378,1.2194
9.7738,410,1.3226
9.7781,374,1.2065
9.7823,349,1.1258
9.7866,382,1.2323
9.7909,415,1.3387
9.7951,401,1.2935
9.7994,365,1.1774
9.8037,359,1.1581
9.8080,407,1.3129
9.8123,441,1.4226
9.8165,408,1.3161
9.8208,362,1.1677
9.8251,368,1.1871
9.8293,400,1.2903
9.8336,387,1.2484
9.8379,332,1.0710
9.8423,318,1.0258
9.8468,372,1.2000
9.8511,403,1.3000
9.8554,378,1.2194
9.8597,339,1.0935
9.8639,349,1.1258
9.8682,407,1.3129
9.8725,449,1.4484
9.8768,433,1.3968
9.8810,408,1.3161
9.8853,433,1.3968
9.8895,473,1.5258
9.8938,455,1.4677
9.8982,391,1.2613
9.9024,387,1.2484
9.9067,452,1.4581
9.9109,493,1.5903
9.9152,461,1.4871
9.9195,406,1.3097
9.9237,395,1.2742
9.9283,438,1.4129
9.9326,450,1.4516
9.9369,419,1.3516
9.9412,409,1.3194
9.9455,470,1.5161
9.9498,545,1.7581
9.9541,556,1.7935
9.9583,511,1.6484
9.9625,492,1.5871
9.9668,528,1.7032
9.9711,552,1.7806
9.9754,541,1.7452
9.9796,512,1.6516
9.9839,523,1.6871
9.9882,570,1.8387
9.9924,588,1.8968
9.9968,552,1.7806
10.0011,519,1.6742
10.0053,538,1.7355
10.0109,574,1.8516
10.0153,541,1.7452
10.0219,485,1.5645
10.0264,506,1.6323
10.0319,511,1.6484
10.0363,478,1.5419
10.0407,448,1.4452
10.0450,463,1.4935
10.0493,498,1.6065
10.0535,490,1.5806
10.0578,444,1.4323
10.0620,440,1.4194
10.0663,471,1.5194
10.0705,491,1.5839
10.0747,487,1.5710
10.0790,481,1.5516
10.0832,505,1.6290
10.0875,550,1.7742
10.0917,569,1.8355
10.0960,532,1.7161
10.1003,493,1.5903
10.1045,500,1.6129
10.1088,545,1.7581
10.1132,543,1.7516
10.1175,476,1.5355
10.1217,433,1.3968
10.1260,482,1.5548
10.1302,550,1.7742
10.1344,595,1.9194
10.1387,636,2.0516
10.1430,689,2.2226
10.1472,699,2.2548
10.1515,568,1.8323
10.1558,359,1.1581
10.1601,217,0.7000
10.1643,221,0.7129
10.1686,318,1.0258
10.1728,395,1.2742
10.1771,426,1.3742
10.1814,450,1.4516
10.1857,516,1.6645
10.1899,596,1.9226
10.1942,630,2.0323
10.1991,606,1.9548
10.2034,588,1.8968
10.2077,605,1.9516
10.2119,603,1.9452
10.2162,569,1.8355
10.2205,515,1.6613
10.2247,478,1.5419
10.2290,454,1.4645
10.2332,411,1.3258
10.2375,362,1.1677
10.2418,366,1.1806
10.2461,425,1.3710
10.2504,472,1.5226
10.2547,457,1.4742
10.2590,383,1.2355
10.2634,344,1.1097
10.2677,375,1.2097
10.2719,398,1.2839
10.2763,373,1.2032
10.2806,357,1.1516
10.2849,387,1.2484
10.2892,438,1.4129
10.2935,459,1.4806
10.2978,452,1.4581
10.3021,461,1.4871
10.3064,510,1.6452
10.3107,557,1.7968
10.3152,551,1.7774
10.3195,531,1.7129
10.3240,547,1.7645
10.3283,596,1.9226
10.3325,626,2.0194
10.3369,605,1.9516
10.3412,588,1.8968
10.3456,619,1.9968
10.3499,650,2.0968
10.3542,640,2.0645
10.3585,627,2.0226
10.3627,657,2.1194
10.3670,718,2.3161
10.3713,732,2.3613
10.3755,684,2.2065
10.3798,640,2.0645
10.3841,637,2.0548
10.3884,674,2.1742
10.3926,706,2.2774
10.3969,694,2.2387
10.4012,666,2.1484
10.4054,673,2.1710
10.4097,691,2.2290
10.4140,678,2.1871
10.4182,658,2.1226
10.4225,666,2.1484
10.4268,711,2.2935
10.4310,729,2.3516
10.4353,687,2.2161
10.4395,641,2.0677
10.4438,629,2.0290
10.4481,652,2.1032
10.4523,658,2.1226
10.4566,634,2.0452
10.4609,619,1.9968
10.4652,650,2.0968
10.4695,687,2.2161
10.4738,685,2.2097
10.4781,661,2.1323
10.4824,665,2.1452
10.4867,709,2.2871
10.4910,723,2.3323
10.4953,690,2.2258
10.4996,653,2.1065
10.5039,668,2.1548
10.5082,708,2.2839
10.5125,707,2.2806
10.5168,671,2.1645
10.5211,654,2.1097
10.5254,688,2.2194
10.5297,715,2.3065
10.5340,678,2.1871
10.5383,622,2.0065
10.5425,635,2.0484
10.5468,690,2.2258
10.5511,710,2.2903
10.5554,664,2.1419
10.5597,619,1.9968
10.5640,621,2.0032
10.5684,646,2.0839
10.5726,635,2.0484
10.5769,601,1.9387
10.5812,605,1.9516
10.5856,666,2.1484
10.5899,703,2.2677
10.5942,672,2.1677
10.5985,624,2.0129
10.6028,619,1.9968
10.6071,665,2.1452
10.6114,673,2.1710
10.6157,650,2.0968
10.6199,634,2.0452
10.6242,635,2.0484
10.6285,633,2.0419
10.6329,596,1.9226
10.6372,532,1.7161
10.6415,511,1.6484
10.6458,544,1.7548
10.6501,584,1.8839
10.6544,572,1.8452
10.6587,546,1.7613
10.6630,558,1.8000
10.6673,603,1.9452
10.6716,619,1.9968
10.6759,574,1.8516
10.6802,532,1.7161
10.6845,557,1.7968
10.6888,604,1.9484
10.6932,581,1.8742
10.6974,522,1.6839
10.7017,499,1.6097
10.7061,539,1.7387
10.7104,570,1.8387
10.7147,544,1.7548
10.7190,500,1.6129
10.7233,510,1.6452
10.7276,537,1.7323
10.7319,514,1.6581
10.7362,458,1.4774
10.7405,443,1.4290
10.7448,484,1.5613
10.7492,515,1.6613
10.7535,502,1.6194
10.7578,467,1.5065
10.7621,484,1.5613
10.7664,541,1.7452
10.7707,569,1.8355
10.7751,524,1.6903
10.7793,461,1.4871
10.7836,468,1.5097
10.7879,510,1.6452
10.7922,522,1.6839
10.7966,483,1.5581
10.8009,459,1.4806
10.8052,486,1.5677
10.8095,510,1.6452
10.8138,483,1.5581
10.8181,441,1.4226
10.8224,438,1.4129
10.8267,474,1.5290
10.8310,489,1.5774
10.8353,457,1.4742
10.8396,442,1.4258
10.8439,469,1.5129
10.8482,519,1.6742
10.8525,528,1.7032
10.8568,492,1.5871
10.8611,468,1.5097
10.8654,497,1.6032
10.8697,523,1.6871
10.8740,508,1.6387
10.8784,470,1.5161
10.8827,462,1.4903
10.8869,474,1.5290
10.8912,471,1.5194
10.8955,461,1.4871
10.8998,492,1.5871
10.9041,604,1.9484
10.9084,748,2.4129
10.9128,853,2.7516
10.9192,905,2.9194
10.9237,848,2.7355
10.9280,752,2.4258
10.9323,643,2.0742
10.9366,570,1.8387
10.9409,571,1.8419
10.9452,632,2.0387
10.9495,664,2.1419
10.9538,630,2.0323
10.9581,562,1.8129
10.9624,535,1.7258
10.9667,571,1.8419
10.9710,601,1.9387
10.9753,582,1.8774
10.9796,574,1.8516
10.9839,612,1.9742
10.9882,654,2.1097
10.9925,666,2.1484
10.9971,633,2.0419
11.0015,632,2.0387
11.0058,674,2.1742
11.0102,718,2.3161
11.0145,718,2.3161
11.0188,698,2.2516
11.0231,725,2.3387
11.0273,766,2.4710
11.0316,773,2.4935
11.0359,732,2.3613
11.0401,699,2.2548
11.0444,720,2.3226
11.0488,736,2.3742
11.0537,694,2.2387
11.0580,657,2.1194
11.0629,672,2.1677
11.0672,696,2.2452
11.0715,680,2.1935
11.0757,631,2.0355
11.0800,598,1.9290
11.0843,631,2.0355
11.0886,677,2.1839
11.0928,664,2.1419
11.0971,610,1.9677
11.1014,597,1.9258
11.1057,637,2.0548
11.1100,667,2.1516
11.1142,648,2.0903
11.1185,617,1.9903
11.1228,614,1.9806
11.1271,626,2.0194
11.1314,612,1.9742
11.1356,566,1.8258
11.1399,559,1.8032
11.1441,599,1.9323
11.1484,615,1.9839
11.1527,577,1.8613
11.1570,533,1.7194
11.1613,543,1.7516
11.1656,612,1.9742
11.1699,668,2.1548
11.1741,658,2.1226
11.1784,606,1.9548
11.1827,569,1.8355
11.1870,576,1.8581
11.1954,549,1.7710
11.1997,513,1.6548
11.2040,514,1.6581
11.2083,516,1.6645
11.2127,494,1.5935
11.2171,472,1.5226
11.2214,477,1.5387
11.2258,497,1.6032
11.2301,485,1.5645
11.2343,429,1.3839
11.2386,389,1.2548
11.2428,401,1.2935
11.2471,436,1.4065
11.2514,437,1.4097
11.2557,403,1.3000
11.2600,364,1.1742
11.2643,376,1.2129
11.2686,375,1.2097
11.2729,328,1.0581
11.2771,279,0.9000
11.2814,282,0.9097
11.2857,323,1.0419
11.2900,339,1.0935
11.2942,308,0.9935
11.2985,291,0.9387
11.3028,309,0.9968
11.3071,354,1.1419
11.3114,377,1.2161
11.3157,358,1.1548
11.3199,353,1.1387
11.3242,385,1.2419
11.3285,414,1.3355
11.3328,400,1.2903
11.3370,354,1.1419
11.3413,345,1.1129
11.3456,407,1.3129
11.3499,443,1.4290
11.3542,409,1.3194
11.3584,369,1.1903
11.3627,399,1.2871
11.3670,457,1.4742
11.3713,481,1.5516
11.3756,459,1.4806
11.3798,442,1.4258
11.3841,452,1.4581
11.3884,473,1.5258
11.3927,451,1.4548
11.3970,403,1.3000
11.4012,380,1.2258
11.4055,396,1.2774
11.4097,422,1.3613
11.4140,406,1.3097
11.4183,386,1.2452
11.4226,392,1.2645
11.4268,419,1.3516
11.4311,424,1.3677
11.4354,394,1.2710
11.4397,367,1.1839
11.4439,391,1.2613
11.4484,421,1.3581
11.4527,415,1.3387
11.4570,385,1.2419
11.4613,383,1.2355
11.4656,420,1.3548
11.4698,454,1.4645
11.4741,438,1.4129
11.4784,375,1.2097
11.4826,371,1.1968
11.4869,403,1.3000
11.4911,408,1.3161
11.4955,383,1.2355
11.4997,376,1.2129
11.5040,400,1.2903
11.5083,432,1.3935
11.5126,431,1.3903
11.5169,405,1.3065
11.5211,411,1.3258
11.5254,458,1.4774
11.5299,504,1.6258
11.5342,511,1.6484
11.5385,504,1.6258
11.5427,518,1.6710
11.5470,544,1.7548
11.5512,540,1.7419
11.5555,505,1.6290
11.5598,488,1.5742
11.5641,539,1.7387
11.5684,580,1.8710
11.5726,574,1.8516
11.5769,542,1.7484
11.5812,537,1.7323
11.5855,572,1.8452
11.5897,585,1.8871
11.5940,549,1.7710
11.5983,517,1.6677
11.6026,540,1.7419
11.6069,599,1.9323
11.6111,622,2.0065
11.6160,581,1.8742
11.6202,551,1.7774
11.6245,572,1.8452
11.6288,590,1.9032
11.6330,571,1.8419
11.6373,531,1.7129
11.6416,519,1.6742
11.6459,531,1.7129
11.6501,512,1.6516
11.6544,438,1.4129
11.6587,376,1.2129
11.6630,374,1.2065
11.6673,415,1.3387
11.6715,421,1.3581
11.6758,436,1.4065
11.6801,539,1.7387
11.6844,691,2.2290
11.6886,799,2.5774
11.6934,727,2.3452
11.6977,548,1.7677
11.7020,431,1.3903
11.7063,400,1.2903
11.7105,388,1.2516
11.7148,369,1.1903
11.7191,360,1.1613
11.7234,395,1.2742
11.7277,435,1.4032
11.7319,438,1.4129
11.7362,385,1.2419
11.7405,358,1.1548
11.7448,383,1.2355
11.7491,400,1.2903
11.7533,374,1.2065
11.7576,352,1.1355
11.7619,370,1.1935
11.7662,416,1.3419
11.7704,420,1.3548
11.7748,378,1.2194
11.7791,359,1.1581
11.7834,412,1.3290
11.7876,491,1.5839
11.7918,515,1.6613
11.7961,513,1.6548
11.8004,530,1.7097
11.8047,568,1.8323
11.8090,592,1.9097
11.8133,553,1.7839
11.8190,485,1.5645
11.8234,509,1.6419
11.8277,564,1.8194
11.8319,568,1.8323
11.8362,540,1.7419
11.8405,538,1.7355
11.8448,553,1.7839
11.8490,557,1.7968
11.8532,523,1.6871
11.8575,496,1.6000
11.8618,497,1.6032
11.8661,540,1.7419
11.8703,553,1.7839
11.8746,510,1.6452
11.8789,481,1.5516
11.8832,518,1.6710
11.8874,556,1.7935
11.8917,550,1.7742
11.8960,516,1.6645
11.9002,514,1.6581
11.9045,556,1.7935
11.9088,594,1.9161
11.9131,589,1.9000
11.9174,574,1.8516
11.9216,590,1.9032
11.9260,628,2.0258
11.9302,632,2.0387
11.9345,604,1.9484
11.9388,582,1.8774
11.9431,601,1.9387
11.9473,614,1.9806
11.9516,584,1.8839
11.9558,530,1.7097
11.9601,509,1.6419
11.9644,542,1.7484
11.9688,581,1.8742
11.9730,571,1.8419
11.9773,521,1.6806
11.9816,485,1.5645
11.9859,484,1.5613
11.9902,492,1.5871
11.9945,457,1.4742
11.9988,425,1.3710
12.0031,441,1.4226
12.0075,466,1.5032
12.0117,465,1.5000
12.0161,440,1.4194
12.0204,430,1.3871
12.0247,463,1.4935
12.0290,471,1.5194
12.0333,444,1.4323
12.0376,422,1.3613
12.0419,448,1.4452
12.0463,491,1.5839
12.0505,503,1.6226
12.0548,481,1.5516
12.0591,467,1.5065
12.0634,499,1.6097
12.0677,546,1.7613
12.0720,542,1.7484
12.0762,522,1.6839
12.0805,518,1.6710
12.0847,546,1.7613
12.0890,556,1.7935
12.0933,522,1.6839
12.0975,492,1.5871
12.1018,500,1.6129
12.1061,533,1.7194
12.1104,527,1.7000
12.1147,489,1.5774
12.1191,474,1.5290
12.1235,508,1.6387
12.1281,542,1.7484
12.1324,524,1.6903
12.1366,498,1.6065
12.1409,519,1.6742
12.1451,573,1.8484
12.1494,590,1.9032
12.1537,548,1.7677
12.1579,514,1.6581
12.1622,530,1.7097
12.1665,577,1.8613
12.1708,583,1.8806
12.1751,539,1.7387
12.1793,501,1.6161
12.1836,510,1.6452
12.1878,520,1.6774
12.1921,516,1.6645
12.1964,487,1.5710
12.2006,478,1.5419
12.2049,527,1.7000
12.2092,553,1.7839
12.2135,517,1.6677
12.2178,485,1.5645
12.2220,496,1.6000
12.2263,513,1.6548
12.2306,509,1.6419
12.2348,470,1.5161
12.2391,448,1.4452
12.2434,482,1.5548
12.2476,516,1.6645
12.2519,493,1.5903
12.2562,462,1.4903
12.2604,465,1.5000
12.2647,505,1.6290
12.2690,529,1.7065
12.2734,505,1.6290
12.2777,488,1.5742
12.2820,523,1.6871
12.2863,556,1.7935
12.2906,552,1.7806
12.2949,505,1.6290
12.2992,478,1.5419
12.3035,529,1.7065
12.3078,585,1.8871
12.3121,582,1.8774
12.3164,552,1.7806
12.3207,551,1.7774
12.3250,583,1.8806
12.3293,604,1.9484
12.3336,596,1.9226
12.3379,578,1.8645
12.3422,582,1.8774
12.3465,601,1.9387
12.3509,591,1.9065
12.3552,543,1.7516
12.3594,514,1.6581
12.3637,555,1.7903
12.3681,574,1.8516
12.3724,548,1.7677
12.3767,496,1.6000
12.3809,499,1.6097
12.3852,538,1.7355
12.3895,549,1.7710
12.3937,495,1.5968
12.3980,452,1.4581
12.4023,490,1.5806
12.4066,582,1.8774
12.4108,676,2.1806
12.4151,753,2.4290
12.4194,852,2.7484
12.4236,970,3.1290
12.4279,991,3.1968
12.4322,862,2.7806
12.4365,667,2.1516
12.4407,552,1.7806
12.4449,553,1.7839
12.4492,577,1.8613
12.4535,552,1.7806
12.4577,524,1.6903
12.4620,538,1.7355
12.4663,562,1.8129
12.4706,551,1.7774
12.4749,510,1.6452
12.4792,494,1.5935
12.4835,526,1.6968
12.4878,560,1.8065
12.4921,545,1.7581
12.4964,521,1.6806
12.5007,541,1.7452
12.5050,597,1.9258
12.5093,615,1.9839
12.5136,575,1.8548
12.5179,538,1.7355
12.5222,544,1.7548
12.5265,581,1.8742
12.5308,582,1.8774
12.5351,553,1.7839
12.5394,552,1.7806
12.5437,576,1.8581
12.5480,586,1.8903
12.5523,567,1.8290
12.5566,534,1.7226
12.5609,536,1.7290
12.5652,570,1.8387
12.5696,576,1.8581
12.5738,537,1.7323
12.5782,503,1.6226
12.5825,526,1.6968
12.5868,551,1.7774
12.5911,549,1.7710
12.5954,538,1.7355
12.5997,555,1.7903
12.6040,602,1.9419
12.6083,605,1.9516
12.6126,558,1.8000
12.6169,515,1.6613
12.6212,520,1.6774
12.6255,544,1.7548
12.6298,538,1.7355
12.6341,501,1.6161
12.6384,487,1.5710
12.6427,523,1.6871
12.6470,558,1.8000
12.6513,537,1.7323
12.6556,491,1.5839
12.6599,490,1.5806
12.6642,524,1.6903
12.6685,546,1.7613
12.6728,529,1.7065
12.6771,500,1.6129
12.6814,502,1.6194
12.6857,531,1.7129
12.6899,532,1.7161
12.6942,489,1.5774
12.6991,458,1.4774
12.7035,485,1.5645
12.7077,497,1.6032
12.7121,454,1.4645
12.7165,408,1.3161
12.7209,408,1.3161
12.7252,438,1.4129
12.7295,431,1.3903
12.7338,382,1.2323
12.7380,349,1.1258
12.7423,376,1.2129
12.7466,425,1.3710
12.7508,437,1.4097
12.7551,416,1.3419
12.7593,418,1.3484
12.7636,467,1.5065
12.7679,494,1.5935
12.7721,469,1.5129
12.7764,438,1.4129
12.7806,441,1.4226
12.7849,477,1.5387
12.7891,493,1.5903
12.7934,465,1.5000
12.7977,433,1.3968
12.8020,444,1.4323
12.8062,477,1.5387
12.8104,478,1.5419
12.8147,467,1.5065
12.8190,470,1.5161
12.8232,493,1.5903
12.8275,499,1.6097
12.8317,467,1.5065
12.8360,427,1.3774
12.8402,424,1.3677
12.8446,465,1.5000
12.8489,490,1.5806
12.8532,460,1.4839
12.8574,437,1.4097
12.8617,459,1.4806
12.8660,496,1.6000
12.8702,501,1.6161
12.8746,464,1.4968
12.8789,428,1.3806
12.8833,432,1.3935
12.8876,451,1.4548
12.8919,429,1.3839
12.8963,390,1.2581
12.9006,394,1.2710
12.9050,420,1.3548
12.9093,429,1.3839
12.9136,403,1.3000
12.9180,385,1.2419
12.9223,417,1.3452
12.9267,458,1.4774
12.9310,457,1.4742
12.9353,423,1.3645
12.9396,429,1.3839
12.9440,467,1.5065
12.9483,486,1.5677
12.9526,456,1.4710
12.9576,446,1.4387
12.9620,500,1.6129
12.9663,558,1.8000
12.9707,562,1.8129
12.9750,533,1.7194
12.9793,520,1.6774
12.9836,563,1.8161
12.9879,580,1.8710
12.9922,535,1.7258
12.9965,492,1.5871
13.0008,484,1.5613
13.0051,523,1.6871
13.0094,536,1.7290
13.0137,498,1.6065
13.0195,483,1.5581
13.0239,526,1.6968
13.0283,540,1.7419
13.0325,507,1.6355
13.0368,472,1.5226
13.0410,493,1.5903
13.0453,541,1.7452
13.0496,545,1.7581
13.0547,498,1.6065
13.0590,481,1.5516
13.0640,513,1.6548
13.0684,529,1.7065
13.0727,495,1.5968
13.0770,463,1.4935
13.0812,485,1.5645
13.0855,521,1.6806
13.0898,508,1.6387
13.0941,466,1.5032
13.0983,446,1.4387
13.1026,491,1.5839
13.1068,531,1.7129
13.1111,518,1.6710
13.1154,482,1.5548
13.1197,467,1.5065
13.1239,485,1.5645
13.1282,512,1.6516
13.1325,552,1.7806
13.1368,634,2.0452
13.1410,777,2.5065
13.1453,922,2.9742
13.1496,975,3.1452
13.1539,872,2.8129
13.1581,704,2.2710
13.1624,594,1.9161
13.1667,536,1.7290
13.1715,483,1.5581
13.1758,449,1.4484
13.1801,457,1.4742
13.1844,492,1.5871
13.1886,491,1.5839
13.1929,461,1.4871
13.1972,443,1.4290
13.2015,475,1.5323
13.2057,508,1.6387
13.2100,486,1.5677
13.2143,442,1.4258
13.2186,448,1.4452
13.2228,494,1.5935
13.2271,525,1.6935
13.2314,504,1.6258
13.2357,477,1.5387
13.2400,496,1.6000
13.2443,542,1.7484
13.2486,546,1.7613
13.2529,491,1.5839
13.2572,449,1.4484
13.2615,463,1.4935
13.2658,491,1.5839
13.2700,470,1.5161
13.2743,420,1.3548
13.2786,404,1.3032
13.2829,442,1.4258
13.2871,477,1.5387
13.2914,457,1.4742
13.2957,411,1.3258
13.3000,410,1.3226
13.3043,456,1.4710
13.3085,482,1.5548
13.3128,461,1.4871
13.3171,451,1.4548
13.3214,486,1.5677
13.3257,533,1.7194
13.3300,525,1.6935
13.3348,467,1.5065
13.3391,448,1.4452
13.3434,503,1.6226
13.3477,542,1.7484
13.3519,518,1.6710
13.3562,474,1.5290
13.3605,477,1.5387
13.3648,510,1.6452
13.3690,508,1.6387
13.3733,470,1.5161
13.3776,453,1.4613
13.3819,491,1.5839
13.3861,528,1.7032
13.3904,517,1.6677
13.3947,503,1.6226
13.3990,534,1.7226
13.4032,580,1.8710
13.4075,610,1.9677
13.4118,583,1.8806
13.4160,547,1.7645
13.4203,558,1.8000
13.4246,578,1.8645
13.4289,572,1.8452
13.4332,531,1.7129
13.4375,503,1.6226
13.4417,531,1.7129
13.4460,562,1.8129
13.4503,544,1.7548
13.4545,503,1.6226
13.4589,498,1.6065
13.4631,527,1.7000
13.4674,528,1.7032
13.4716,492,1.5871
13.4759,480,1.5484
13.4802,524,1.6903
13.4845,584,1.8839
13.4888,603,1.9452
13.4930,571,1.8419
13.4973,545,1.7581
13.5016,570,1.8387
13.5059,597,1.9258
13.5101,576,1.8581
13.5146,529,1.7065
13.5189,526,1.6968
13.5232,565,1.8226
13.5275,575,1.8548
13.5318,541,1.7452
13.5361,511,1.6484
13.5404,517,1.6677
13.5446,549,1.7710
13.5489,552,1.7806
13.5531,517,1.6677
13.5574,494,1.5935
13.5617,528,1.7032
13.5660,576,1.8581
13.5702,562,1.8129
13.5747,509,1.6419
13.5791,497,1.6032
13.5834,535,1.7258
13.5877,557,1.7968
13.5920,514,1.6581
13.5963,487,1.5710
13.6006,512,1.6516
13.6049,557,1.7968
13.6092,559,1.8032
13.6135,510,1.6452
13.6180,482,1.5548
13.6224,513,1.6548
13.6268,545,1.7581
13.6311,527,1.7000
13.6354,499,1.6097
13.6397,513,1.6548
13.6440,545,1.7581
13.6483,554,1.7871
13.6526,520,1.6774
13.6569,488,1.5742
13.6612,516,1.6645
13.6655,554,1.7871
13.6698,547,1.7645
13.6741,502,1.6194
13.6784,490,1.5806
13.6827,528,1.7032
13.6870,563,1.8161
13.6913,536,1.7290
13.6956,502,1.6194
13.6999,510,1.6452
13.7042,545,1.7581
13.7085,550,1.7742
13.7128,522,1.6839
13.7171,521,1.6806
13.7214,554,1.7871
13.7257,578,1.8645
13.7300,566,1.8258
13.7343,522,1.6839
13.7386,513,1.6548
13.7428,546,1.7613
13.7472,563,1.8161
13.7514,523,1.6871
13.7557,490,1.5806
13.7600,504,1.6258
13.7643,541,1.7452
13.7686,543,1.7516
13.7729,512,1.6516
13.7772,487,1.5710
13.7815,501,1.6161
13.7859,521,1.6806
13.7902,502,1.6194
13.7945,446,1.4387
13.7990,415,1.3387
13.8033,437,1.4097
13.8076,450,1.4516
13.8120,419,1.3516
13.8163,398,1.2839
13.8206,430,1.3871
13.8250,482,1.5548
13.8293,500,1.6129
13.8336,463,1.4935
13.8380,441,1.4226
13.8423,476,1.5355
13.8467,505,1.6290
13.8510,485,1.5645
13.8553,448,1.4452
13.8596,434,1.4000
13.8640,447,1.4419
13.8683,461,1.4871
13.8727,471,1.5194
13.8771,540,1.7419
13.8814,701,2.2613
13.8857,857,2.7645
13.8900,908,2.9290
13.8943,798,2.5742
13.8986,633,2.0419
13.9029,524,1.6903
13.9072,96,0.3097
13.9121,0,0.0000
13.9177,0,0.0000
13.9221,164,0.5290
13.9265,363,1.1710
13.9308,402,1.2968
13.9351,378,1.2194
13.9394,403,1.3000
13.9437,453,1.4613
13.9480,443,1.4290
13.9523,389,1.2548
13.9566,383,1.2355
13.9609,440,1.4194
13.9652,481,1.5516
13.9695,447,1.4419
13.9738,396,1.2774
13.9781,409,1.3194
13.9824,488,1.5742
13.9867,533,1.7194
13.9910,492,1.5871
13.9954,426,1.3742
13.9996,432,1.3935
14.0039,475,1.5323
14.0082,471,1.5194
14.0125,423,1.3645
14.0168,411,1.3258
14.0211,468,1.5097
14.0254,519,1.6742
14.0297,487,1.5710
14.0340,424,1.3677
14.0383,443,1.4290
14.0426,532,1.7161
14.0469,577,1.8613
14.0512,544,1.7548
14.0555,509,1.6419
14.0598,543,1.7516
14.0641,584,1.8839
14.0684,563,1.8161
14.0727,484,1.5613
14.0770,466,1.5032
14.0813,527,1.7000
14.0856,576,1.8581
14.0900,543,1.7516
14.0943,487,1.5710
14.0987,494,1.5935
14.1030,558,1.8000
14.1073,583,1.8806
14.1116,533,1.7194
14.1160,496,1.6000
14.1203,529,1.7065
14.1247,597,1.9258
14.1290,583,1.8806
14.1333,526,1.6968
14.1377,522,1.6839
14.1420,586,1.8903
14.1463,623,2.0097
14.1507,576,1.8581
14.1550,515,1.6613
14.1593,527,1.7000
14.1637,574,1.8516
14.1680,569,1.8355
14.1723,506,1.6323
14.1767,477,1.5387
14.1810,522,1.6839
14.1853,558,1.8000
14.1896,521,1.6806
14.1939,472,1.5226
14.1983,495,1.5968
14.2026,578,1.8645
14.2069,607,1.9581
14.2111,552,1.7806
14.2154,494,1.5935
14.2197,510,1.6452
14.2240,576,1.8581
14.2283,590,1.9032
14.2326,533,1.7194
14.2370,501,1.6161
14.2413,544,1.7548
14.2456,574,1.8516
14.2499,541,1.7452
14.2542,498,1.6065
14.2585,518,1.6710
14.2628,577,1.8613
14.2671,587,1.8935
14.2714,533,1.7194
14.2757,491,1.5839
14.2801,522,1.6839
14.2844,574,1.8516
14.2888,568,1.8323
14.2932,518,1.6710
14.2975,512,1.6516
14.3019,567,1.8290
14.3062,594,1.9161
14.3105,540,1.7419
14.3148,492,1.5871
14.3192,526,1.6968
14.3235,581,1.8742
14.3279,572,1.8452
14.3322,513,1.6548
14.3365,493,1.5903
14.3409,539,1.7387
14.3452,568,1.8323
14.3495,514,1.6581
14.3539,436,1.4065
14.3582,438,1.4129
14.3625,505,1.6290
14.3669,520,1.6774
14.3712,457,1.4742
14.3755,431,1.3903
14.3799,481,1.5516
14.3842,539,1.7387
14.3885,530,1.7097
14.3928,464,1.4968
14.3971,439,1.4161
14.4014,496,1.6000
14.4057,539,1.7387
14.4100,513,1.6548
14.4143,474,1.5290
14.4186,495,1.5968
14.4229,539,1.7387
14.4272,542,1.7484
14.4315,495,1.5968
14.4358,469,1.5129
14.4401,517,1.6677
14.4444,584,1.8839
14.4487,584,1.8839
14.4530,531,1.7129
14.4573,517,1.6677
14.4616,564,1.8194
14.4660,581,1.8742
14.4703,525,1.6935
14.4745,480,1.5484
14.4789,514,1.6581
14.4832,581,1.8742
14.4875,598,1.9290
14.4918,538,1.7355
14.4962,501,1.6161
14.5005,538,1.7355
14.5049,585,1.8871
14.5092,567,1.8290
14.5136,503,1.6226
14.5183,506,1.6323
14.5228,578,1.8645
14.5272,595,1.9194
14.5315,541,1.7452
14.5359,500,1.6129
14.5402,528,1.7032
14.5445,566,1.8258
14.5489,540,1.7419
14.5533,488,1.5742
14.5576,491,1.5839
14.5619,544,1.7548
14.5663,564,1.8194
14.5706,505,1.6290
14.5749,444,1.4323
14.5793,474,1.5290
14.5836,566,1.8258
14.5880,649,2.0935
14.5923,714,2.3032
14.5966,807,2.6032
14.6009,908,2.9290
14.6052,915,2.9516
14.6095,767,2.4742
14.6138,579,1.8677
14.6181,507,1.6355
14.6224,530,1.7097
14.6267,553,1.7839
14.6310,531,1.7129
14.6353,503,1.6226
14.6396,529,1.7065
14.6439,576,1.8581
14.6482,571,1.8419
14.6525,516,1.6645
14.6568,501,1.6161
14.6611,561,1.8097
14.6654,600,1.9355
14.6697,560,1.8065
14.6740,493,1.5903
14.6782,497,1.6032
14.6826,561,1.8097
14.6869,571,1.8419
14.6913,513,1.6548
14.6957,475,1.5323
14.7000,514,1.6581
14.7043,563,1.8161
14.7087,538,1.7355
14.7130,473,1.5258
14.7174,470,1.5161
14.7217,526,1.6968
14.7260,553,1.7839
14.7310,479,1.5452
14.7354,430,1.3871
14.7398,481,1.5516
14.7441,544,1.7548
14.7484,525,1.6935
14.7528,482,1.5548
14.7571,498,1.6065
14.7615,561,1.8097
14.7658,598,1.9290
14.7701,542,1.7484
14.7745,488,1.5742
14.7788,526,1.6968
14.7833,579,1.8677
14.7876,571,1.8419
14.7919,524,1.6903
14.7963,519,1.6742
14.8006,577,1.8613
14.8048,620,2.0000
14.8091,585,1.8871
14.8135,530,1.7097
14.8182,554,1.7871
14.8227,608,1.9613
14.8271,609,1.9645
14.8314,558,1.8000
14.8358,523,1.6871
14.8401,565,1.8226
14.8444,625,2.0161
14.8487,604,1.9484
14.8530,543,1.7516
14.8573,541,1.7452
14.8616,606,1.9548
14.8658,638,2.0581
14.8701,596,1.9226
14.8744,538,1.7355
14.8788,542,1.7484
14.8831,579,1.8677
14.8874,580,1.8710
14.8917,537,1.7323
14.8961,517,1.6677
14.9004,534,1.7226
14.9047,535,1.7258
14.9090,476,1.5355
14.9133,394,1.2710
14.9176,393,1.2677
14.9219,462,1.4903
14.9262,516,1.6645
14.9305,488,1.5742
14.9348,459,1.4806
14.9391,490,1.5806
14.9434,536,1.7290
14.9477,525,1.6935
14.9519,470,1.5161
14.9562,457,1.4742
14.9606,506,1.6323
14.9648,533,1.7194
14.9691,495,1.5968
14.9734,446,1.4387
14.9777,468,1.5097
14.9820,532,1.7161
14.9864,538,1.7355
14.9907,455,1.4677
14.9951,392,1.2645
14.9995,426,1.3742
15.0038,481,1.5516
15.0082,466,1.5032
15.0125,415,1.3387
15.0169,416,1.3419
15.0214,484,1.5613
15.0259,510,1.6452
15.0305,456,1.4710
15.0364,411,1.3258
15.0409,465,1.5000
15.0455,485,1.5645
15.0498,436,1.4065
15.0541,392,1.2645
15.0585,423,1.3645
15.0629,495,1.5968
15.0672,505,1.6290
15.0715,452,1.4581
15.0759,432,1.3935
15.0802,476,1.5355
15.0846,510,1.6452
15.0892,464,1.4968
15.0935,416,1.3419
15.0981,439,1.4161
15.1024,491,1.5839
15.1066,498,1.6065
15.1109,455,1.4677
15.1152,433,1.3968
15.1194,477,1.5387
15.1237,526,1.6968
15.1280,502,1.6194
15.1323,437,1.4097
15.1365,420,1.3548
15.1408,478,1.5419
15.1451,515,1.6613
15.1494,461,1.4871
15.1536,408,1.3161
15.1579,434,1.4000
15.1622,491,1.5839
15.1665,472,1.5226
15.1707,418,1.3484
15.1750,417,1.3452
15.1793,471,1.5194
15.1841,522,1.6839
15.1884,494,1.5935
15.1926,435,1.4032
15.1970,439,1.4161
15.2013,502,1.6194
15.2056,546,1.7613
15.2099,521,1.6806
15.2142,493,1.5903
15.2185,512,1.6516
15.2228,548,1.7677
15.2272,529,1.7065
15.2314,432,1.3935
15.2357,382,1.2323
15.2403,443,1.4290
15.2446,497,1.6032
15.2490,476,1.5355
15.2533,415,1.3387
15.2575,420,1.3548
15.2620,489,1.5774
15.2663,507,1.6355
15.2706,466,1.5032
15.2749,436,1.4065
15.2792,484,1.5613
15.2835,541,1.7452
15.2878,533,1.7194
15.2922,482,1.5548
15.2965,471,1.5194
15.3008,526,1.6968
15.3051,566,1.8258
15.3094,539,1.7387
15.3137,479,1.5452
15.3180,478,1.5419
15.3223,515,1.6613
15.3266,506,1.6323
15.3309,441,1.4226
15.3352,418,1.3484
15.3395,496,1.6000
15.3440,606,1.9548
15.3483,698,2.2516
15.3526,785,2.5323
15.3569,888,2.8645
15.3612,949,3.0613
15.3655,847,2.7323
15.3698,635,2.0484
15.3741,470,1.5161
15.3784,432,1.3935
15.3827,475,1.5323
15.3870,491,1.5839
15.3915,449,1.4484
15.3959,425,1.3710
15.4001,471,1.5194
15.4044,510,1.6452
15.4088,485,1.5645
15.4131,443,1.4290
15.4176,467,1.5065
15.4219,541,1.7452
15.4264,560,1.8065
15.4307,508,1.6387
15.4350,470,1.5161
15.4393,509,1.6419
15.4436,556,1.7935
15.4479,540,1.7419
15.4523,498,1.6065
15.4565,500,1.6129
15.4608,556,1.7935
15.4651,583,1.8806
15.4694,551,1.7774
15.4737,517,1.6677
15.4780,540,1.7419
15.4823,579,1.8677
15.4867,565,1.8226
15.4910,502,1.6194
15.4953,484,1.5613
15.4996,534,1.7226
15.5039,580,1.8710
15.5082,549,1.7710
15.5125,497,1.6032
15.5167,497,1.6032
15.5210,544,1.7548
15.5252,574,1.8516
15.5295,542,1.7484
15.5338,500,1.6129
15.5381,525,1.6935
15.5423,581,1.8742
15.5466,585,1.8871
15.5508,533,1.7194
15.5551,504,1.6258
15.5594,550,1.7742
15.5636,595,1.9194
15.5679,570,1.8387
15.5722,520,1.6774
15.5764,517,1.6677
15.5807,572,1.8452
15.5849,607,1.9581
15.5893,563,1.8161
15.5936,515,1.6613
15.5980,536,1.7290
15.6023,595,1.9194
15.6066,601,1.9387
15.6110,547,1.7645
15.6153,518,1.6710
15.6197,565,1.8226
15.6240,609,1.9645
15.6283,579,1.8677
15.6327,534,1.7226
15.6370,523,1.6871
15.6413,557,1.7968
15.6457,553,1.7839
15.6502,484,1.5613
15.6545,438,1.4129
15.6588,478,1.5419
15.6632,532,1.7161
15.6675,513,1.6548
15.6718,453,1.4613
15.6761,442,1.4258
15.6804,490,1.5806
15.6847,519,1.6742
15.6890,482,1.5548
15.6933,442,1.4258
15.6977,458,1.4774
15.7019,513,1.6548
15.7062,526,1.6968
15.7104,485,1.5645
15.7148,459,1.4806
15.7192,485,1.5645
15.7235,527,1.7000
15.7279,506,1.6323
15.7322,463,1.4935
15.7365,463,1.4935
15.7408,497,1.6032
15.7451,507,1.6355
15.7494,469,1.5129
15.7537,431,1.3903
15.7580,440,1.4194
15.7623,479,1.5452
15.7666,483,1.5581
15.7709,445,1.4355
15.7752,442,1.4258
15.7795,488,1.5742
15.7838,504,1.6258
15.7881,440,1.4194
15.7924,374,1.2065
15.7967,381,1.2290
15.8010,436,1.4065
15.8053,461,1.4871
15.8096,430,1.3871
15.8139,392,1.2645
15.8183,420,1.3548
15.8226,473,1.5258
15.8269,467,1.5065
15.8312,421,1.3581
15.8355,416,1.3419
15.8398,466,1.5032
15.8441,505,1.6290
15.8484,473,1.5258
15.8527,425,1.3710
15.8570,440,1.4194
15.8613,475,1.5323
15.8656,477,1.5387
15.8699,433,1.3968
15.8742,402,1.2968
15.8785,432,1.3935
15.8828,468,1.5097
15.8871,463,1.4935
15.8914,429,1.3839
15.8957,428,1.3806
15.9000,488,1.5742
15.9043,533,1.7194
15.9086,500,1.6129
15.9129,444,1.4323
15.9172,453,1.4613
15.9215,502,1.6194
15.9258,506,1.6323
15.9301,447,1.4419
15.9344,407,1.3129
15.9387,424,1.3677
15.9430,455,1.4677
15.9473,444,1.4323
15.9516,406,1.3097
15.9559,419,1.3516
15.9602,497,1.6032
15.9645,532,1.7161
15.9688,472,1.5226
15.9731,403,1.3000
15.9774,431,1.3903
15.9817,504,1.6258
15.9860,517,1.6677
15.9903,468,1.5097
15.9948,452,1.4581
15.9991,511,1.6484
16.0034,543,1.7516
16.0077,496,1.6000
16.0120,443,1.4290
16.0163,448,1.4452
16.0206,509,1.6419
16.0249,528,1.7032
16.0292,474,1.5290
16.0335,423,1.3645
16.0378,447,1.4419
16.0421,509,1.6419
16.0464,519,1.6742
16.0507,477,1.5387
16.0550,460,1.4839
16.0593,500,1.6129
16.0636,530,1.7097
16.0679,487,1.5710
16.0722,445,1.4355
16.0765,466,1.5032
16.0808,522,1.6839
16.0851,545,1.7581
16.0894,488,1.5742
16.0937,441,1.4226
16.0980,481,1.5516
16.1023,537,1.7323
16.1066,523,1.6871
16.1109,455,1.4677
16.1152,447,1.4419
16.1195,508,1.6387
16.1238,541,1.7452
16.1281,508,1.6387
16.1324,445,1.4355
16.1367,447,1.4419
16.1410,499,1.6097
16.1453,511,1.6484
16.1496,474,1.5290
16.1539,450,1.4516
16.1582,490,1.5806
16.1625,520,1.6774
16.1668,481,1.5516
16.1711,456,1.4710
16.1754,539,1.7387
16.1797,707,2.2806
16.1840,867,2.7968
16.1883,923,2.9774
16.1926,871,2.8097
16.1969,763,2.4613
16.2012,682,2.2000
16.2055,611,1.9710
16.2098,517,1.6677
16.2141,453,1.4613
16.2184,485,1.5645
16.2227,540,1.7419
16.2270,542,1.7484
16.2313,500,1.6129
16.2356,469,1.5129
16.2399,490,1.5806
16.2442,511,1.6484
16.2485,482,1.5548
16.2528,460,1.4839
16.2571,503,1.6226
16.2614,574,1.8516
16.2657,577,1.8613
16.2700,510,1.6452
16.2743,462,1.4903
16.2786,504,1.6258
16.2829,564,1.8194
16.2872,546,1.7613
16.2915,495,1.5968
16.2958,486,1.5677
16.3001,529,1.7065
16.3044,561,1.8097
16.3087,534,1.7226
16.3131,495,1.5968
16.3185,541,1.7452
16.3229,579,1.8677
16.3273,551,1.7774
16.3316,496,1.6000
16.3359,497,1.6032
16.3402,549,1.7710
16.3445,562,1.8129
16.3488,526,1.6968
16.3531,495,1.5968
16.3574,534,1.7226
16.3617,594,1.9161
16.3660,599,1.9323
16.3703,546,1.7613
16.3746,531,1.7129
16.3789,574,1.8516
16.3832,595,1.9194
16.3875,550,1.7742
16.3918,492,1.5871
16.3961,510,1.6452
16.4004,578,1.8645
16.4047,603,1.9452
16.4090,563,1.8161
16.4133,529,1.7065
16.4176,570,1.8387
16.4219,640,2.0645
16.4262,648,2.0903
16.4305,604,1.9484
16.4348,592,1.9097
16.4391,628,2.0258
16.4434,658,2.1226
16.4477,625,2.0161
16.4520,567,1.8290
16.4563,576,1.8581
16.4606,633,2.0419
16.4649,643,2.0742
16.4692,583,1.8806
16.4735,535,1.7258
16.4778,548,1.7677
16.4821,575,1.8548
16.4863,554,1.7871
16.4908,487,1.5710
16.4951,483,1.5581
16.4994,533,1.7194
16.5044,569,1.8355
16.5088,543,1.7516
16.5132,513,1.6548
16.5175,540,1.7419
16.5218,591,1.9065
16.5261,580,1.8710
16.5304,533,1.7194
16.5347,517,1.6677
16.5390,557,1.7968
16.5432,601,1.9387
16.5475,561,1.8097
16.5519,488,1.5742
16.5562,466,1.5032
16.5605,497,1.6032
16.5648,509,1.6419
16.5691,475,1.5323
16.5734,471,1.5194
16.5777,530,1.7097
16.5820,581,1.8742
16.5863,548,1.7677
16.5905,468,1.5097
16.5949,470,1.5161
16.5992,555,1.7903
16.6036,589,1.9000
16.6079,539,1.7387
16.6132,491,1.5839
16.6186,578,1.8645
16.6230,632,2.0387
16.6274,590,1.9032
16.6317,524,1.6903
16.6360,508,1.6387
16.6403,544,1.7548
16.6446,566,1.8258
16.6489,533,1.7194
16.6532,503,1.6226
16.6575,539,1.7387
16.6618,597,1.9258
16.6661,596,1.9226
16.6704,537,1.7323
16.6748,513,1.6548
16.6791,563,1.8161
16.6834,595,1.9194
16.6876,571,1.8419
16.6919,528,1.7032
16.6963,543,1.7516
16.7006,595,1.9194
16.7049,594,1.9161
16.7092,543,1.7516
16.7135,513,1.6548
16.7178,548,1.7677
16.7221,574,1.8516
16.7264,544,1.7548
16.7307,492,1.5871
16.7350,488,1.5742
16.7393,529,1.7065
16.7436,538,1.7355
16.7479,485,1.5645
16.7522,439,1.4161
16.7566,464,1.4968
16.7608,526,1.6968
16.7651,538,1.7355
16.7694,476,1.5355
16.7737,443,1.4290
16.7780,484,1.5613
16.7823,532,1.7161
16.7866,507,1.6355
16.7909,432,1.3935
16.7952,419,1.3516
16.7995,484,1.5613
16.8038,518,1.6710
16.8081,477,1.5387
16.8124,426,1.3742
16.8167,445,1.4355
16.8210,502,1.6194
16.8253,505,1.6290
16.8296,458,1.4774
16.8339,446,1.4387
16.8382,501,1.6161
16.8425,551,1.7774
16.8468,532,1.7161
16.8511,477,1.5387
16.8554,480,1.5484
16.8597,525,1.6935
16.8640,520,1.6774
16.8683,459,1.4806
16.8726,413,1.3323
16.8769,441,1.4226
16.8812,483,1.5581
16.8855,462,1.4903
16.8898,400,1.2903
16.8941,379,1.2226
16.8984,431,1.3903
16.9027,468,1.5097
16.9070,443,1.4290
16.9113,392,1.2645
16.9156,399,1.2871
16.9199,459,1.4806
16.9242,483,1.5581
16.9285,440,1.4194
16.9328,397,1.2806
16.9371,420,1.3548
16.9414,474,1.5290
16.9457,469,1.5129
16.9500,416,1.3419
16.9543,405,1.3065
16.9586,452,1.4581
16.9629,472,1.5226
16.9672,432,1.3935
16.9715,387,1.2484
16.9758,424,1.3677
16.9801,530,1.7097
16.9844,639,2.0613
16.9887,733,2.3645
16.9930,820,2.6452
16.9973,878,2.8323
17.0017,819,2.6419
17.0060,646,2.0839
17.0103,463,1.4935
17.0146,382,1.2323
17.0189,422,1.3613
17.0232,473,1.5258
17.0275,454,1.4645
17.0318,404,1.3032
17.0361,411,1.3258
17.0404,455,1.4677
17.0447,444,1.4323
17.0490,388,1.2516
17.0533,374,1.2065
17.0576,439,1.4161
17.0620,492,1.5871
17.0663,470,1.5161
17.0705,409,1.3194
17.0748,414,1.3355
17.0791,471,1.5194
17.0834,513,1.6548
17.0877,499,1.6097
17.0920,477,1.5387
17.0963,515,1.6613
17.1006,561,1.8097
17.1049,543,1.7516
17.1092,480,1.5484
17.1135,457,1.4742
17.1178,499,1.6097
17.1221,538,1.7355
17.1264,511,1.6484
17.1307,456,1.4710
17.1350,464,1.4968
17.1393,542,1.7484
17.1436,581,1.8742
17.1479,539,1.7387
17.1522,503,1.6226
17.1565,529,1.7065
17.1608,553,1.7839
17.1651,525,1.6935
17.1694,443,1.4290
17.1737,408,1.3161
17.1780,469,1.5129
17.1823,523,1.6871
17.1866,502,1.6194
17.1909,469,1.5129
17.1952,490,1.5806
17.1995,559,1.8032
17.2038,589,1.9000
17.2081,532,1.7161
17.2127,472,1.5226
17.2190,537,1.7323
17.2234,582,1.8774
17.2278,536,1.7290
17.2321,481,1.5516
17.2364,503,1.6226
17.2407,572,1.8452
17.2450,596,1.9226
17.2493,549,1.7710
17.2536,517,1.6677
17.2579,563,1.8161
17.2622,613,1.9774
17.2665,590,1.9032
17.2708,533,1.7194
17.2751,525,1.6935
17.2793,572,1.8452
17.2836,592,1.9097
17.2880,534,1.7226
17.2923,474,1.5290
17.2966,481,1.5516
17.3009,522,1.6839
17.3052,520,1.6774
17.3095,488,1.5742
17.3138,484,1.5613
17.3181,527,1.7000
17.3224,561,1.8097
17.3267,526,1.6968
17.3310,464,1.4968
17.3353,464,1.4968
17.3396,501,1.6161
17.3438,500,1.6129
17.3481,454,1.4645
17.3524,433,1.3968
17.3567,482,1.5548
17.3610,537,1.7323
17.3653,527,1.7000
17.3696,476,1.5355
17.3739,471,1.5194
17.3782,521,1.6806
17.3825,553,1.7839
17.3868,520,1.6774
17.3911,470,1.5161
17.3954,493,1.5903
17.3997,551,1.7774
17.4041,565,1.8226
17.4084,505,1.6290
17.4128,459,1.4806
17.4171,493,1.5903
17.4214,545,1.7581
17.4258,521,1.6806
17.4301,462,1.4903
17.4344,465,1.5000
17.4388,536,1.7290
17.4431,563,1.8161
17.4475,523,1.6871
17.4518,499,1.6097
17.4561,542,1.7484
17.4605,597,1.9258
17.4648,582,1.8774
17.4691,535,1.7258
17.4735,514,1.6581
17.4778,530,1.7097
17.4821,546,1.7613
17.4865,505,1.6290
17.4908,457,1.4742
17.4952,484,1.5613
17.4995,545,1.7581
17.5038,552,1.7806
17.5082,495,1.5968
17.5135,448,1.4452
17.5190,510,1.6452
17.5234,532,1.7161
17.5278,480,1.5484
17.5321,436,1.4065
17.5365,469,1.5129
17.5408,519,1.6742
17.5451,498,1.6065
17.5493,440,1.4194
17.5536,430,1.3871
17.5579,496,1.6000
17.5623,539,1.7387
17.5665,495,1.5968
17.5708,438,1.4129
17.5751,447,1.4419
17.5794,502,1.6194
17.5837,502,1.6194
17.5880,456,1.4710
17.5923,438,1.4129
17.5967,477,1.5387
17.6010,526,1.6968
17.6053,510,1.6452
17.6096,469,1.5129
17.6139,469,1.5129
17.6182,529,1.7065
17.6225,563,1.8161
17.6268,528,1.7032
17.6311,479,1.5452
17.6354,497,1.6032
17.6397,546,1.7613
17.6440,559,1.8032
17.6483,494,1.5935
17.6526,450,1.4516
17.6569,487,1.5710
17.6612,536,1.7290
17.6655,534,1.7226
17.6698,504,1.6258
17.6741,518,1.6710
17.6784,577,1.8613
17.6827,590,1.9032
17.6869,528,1.7032
17.6912,477,1.5387
17.6955,486,1.5677
17.6999,511,1.6484
17.7042,499,1.6097
17.7085,459,1.4806
17.7129,448,1.4452
17.7172,492,1.5871
17.7215,534,1.7226
17.7258,522,1.6839
17.7300,487,1.5710
17.7343,519,1.6742
17.7386,592,1.9097
17.7429,608,1.9613
17.7472,534,1.7226
17.7515,464,1.4968
17.7558,507,1.6355
17.7601,584,1.8839
17.7644,590,1.9032
17.7687,522,1.6839
17.7730,468,1.5097
17.7773,499,1.6097
17.7816,563,1.8161
17.7859,592,1.9097
17.7902,633,2.0419
17.7945,773,2.4935
17.7988,955,3.0806
17.8032,996,3.2129
17.8074,877,2.8290
17.8117,682,2.2000
17.8161,583,1.8806
17.8204,570,1.8387
17.8248,520,1.6774
17.8291,444,1.4323
17.8334,422,1.3613
17.8378,464,1.4968
17.8421,494,1.5935
17.8464,452,1.4581
17.8508,399,1.2871
17.8551,415,1.3387
17.8594,471,1.5194
17.8638,485,1.5645
17.8681,445,1.4355
17.8725,436,1.4065
17.8768,484,1.5613
17.8811,517,1.6677
17.8855,485,1.5645
17.8898,428,1.3806
17.8941,429,1.3839
17.8985,489,1.5774
17.9028,507,1.6355
17.9071,453,1.4613
17.9115,413,1.3323
17.9158,462,1.4903
17.9201,532,1.7161
17.9244,523,1.6871
17.9287,449,1.4484
17.9330,404,1.3032
17.9373,453,1.4613
17.9415,504,1.6258
17.9459,468,1.5097
17.9501,410,1.3226
17.9544,446,1.4387
17.9588,531,1.7129
17.9631,545,1.7581
17.9674,484,1.5613
17.9717,458,1.4774
17.9760,504,1.6258
17.9802,561,1.8097
17.9845,550,1.7742
17.9889,504,1.6258
17.9932,498,1.6065
17.9975,553,1.7839
18.0018,591,1.9065
18.0061,566,1.8258
18.0105,529,1.7065
18.0148,534,1.7226
18.0191,570,1.8387
18.0234,564,1.8194
18.0278,517,1.6677
18.0321,489,1.5774
18.0365,526,1.6968
18.0408,573,1.8484
18.0451,535,1.7258
18.0495,464,1.4968
18.0538,474,1.5290
18.0581,556,1.7935
18.0624,591,1.9065
18.0668,549,1.7710
18.0711,513,1.6548
18.0755,565,1.8226
18.0798,625,2.0161
18.0841,596,1.9226
18.0885,513,1.6548
18.0928,487,1.5710
18.0971,538,1.7355
18.1015,584,1.8839
18.1058,543,1.7516
18.1101,500,1.6129
18.1145,535,1.7258
18.1192,592,1.9097
18.1236,561,1.8097
18.1279,464,1.4968
18.1323,422,1.3613
18.1366,468,1.5097
18.1409,511,1.6484
18.1452,481,1.5516
18.1495,424,1.3677
18.1538,431,1.3903
18.1580,496,1.6000
18.1623,532,1.7161
18.1666,495,1.5968
18.1710,455,1.4677
18.1753,486,1.5677
18.1796,547,1.7645
18.1839,540,1.7419
18.1882,476,1.5355
18.1925,455,1.4677
18.1968,501,1.6161
18.2011,541,1.7452
18.2054,498,1.6065
18.2097,430,1.3871
18.2140,435,1.4032
18.2183,495,1.5968
18.2226,510,1.6452
18.2269,450,1.4516
18.2312,424,1.3677
18.2356,490,1.5806
18.2399,549,1.7710
18.2442,535,1.7258
18.2485,481,1.5516
18.2528,477,1.5387
18.2571,536,1.7290
18.2614,567,1.8290
18.2657,523,1.6871
18.2700,469,1.5129
18.2743,470,1.5161
18.2792,518,1.6710
18.2835,510,1.6452
18.2878,452,1.4581
18.2921,439,1.4161
18.2964,501,1.6161
18.3007,551,1.7774
18.3050,530,1.7097
18.3093,470,1.5161
18.3136,466,1.5032
18.3179,533,1.7194
18.3222,560,1.8065
18.3265,492,1.5871
18.3308,440,1.4194
18.3351,471,1.5194
18.3394,530,1.7097
18.3437,539,1.7387
18.3480,501,1.6161
18.3523,489,1.5774
18.3566,540,1.7419
18.3609,567,1.8290
18.3652,521,1.6806
18.3695,458,1.4774
18.3738,471,1.5194
18.3781,527,1.7000
18.3824,545,1.7581
18.3867,488,1.5742
18.3910,442,1.4258
18.3953,474,1.5290
18.3996,524,1.6903
18.4039,517,1.6677
18.4082,483,1.5581
18.4124,484,1.5613
18.4195,556,1.7935
18.4240,553,1.7839
18.4284,503,1.6226
18.4327,503,1.6226
18.4370,559,1.8032
18.4413,588,1.8968
18.4456,551,1.7774
18.4499,489,1.5774
18.4542,493,1.5903
18.4585,533,1.7194
18.4628,532,1.7161
18.4671,478,1.5419
18.4714,438,1.4129
18.4757,471,1.5194
18.4800,486,1.5677
18.4843,459,1.4806
18.4886,421,1.3581
18.4929,433,1.3968
18.4972,497,1.6032
18.5015,507,1.6355
18.5058,440,1.4194
18.5101,380,1.2258
18.5144,386,1.2452
18.5188,452,1.4581
18.5231,466,1.5032
18.5274,414,1.3355
18.5317,388,1.2516
18.5360,444,1.4323
18.5403,495,1.5968
18.5446,478,1.5419
18.5489,437,1.4097
18.5532,456,1.4710
18.5575,525,1.6935
18.5618,556,1.7935
18.5661,528,1.7032
18.5704,495,1.5968
18.5747,502,1.6194
18.5790,532,1.7161
18.5833,550,1.7742
18.5876,540,1.7419
18.5919,583,1.8806
18.5962,743,2.3968
18.6005,902,2.9097
18.6048,935,3.0161
18.6091,805,2.5968
18.6134,661,2.1323
18.6177,585,1.8871
18.6221,522,1.6839
18.6264,429,1.3839
18.6308,398,1.2839
18.6351,440,1.4194
18.6394,502,1.6194
18.6438,491,1.5839
18.6481,436,1.4065
18.6524,425,1.3710
18.6568,486,1.5677
18.6611,531,1.7129
18.6654,500,1.6129
18.6698,457,1.4742
18.6741,479,1.5452
18.6784,539,1.7387
18.6828,564,1.8194
18.6871,516,1.6645
18.6914,484,1.5613
18.6958,519,1.6742
18.7001,559,1.8032
18.7045,523,1.6871
18.7088,471,1.5194
18.7132,485,1.5645
18.7175,561,1.8097
18.7218,605,1.9516
18.7262,556,1.7935
18.7304,510,1.6452
18.7347,524,1.6903
18.7390,564,1.8194
18.7433,556,1.7935
18.7476,493,1.5903
18.7519,470,1.5161
18.7562,519,1.6742
18.7605,559,1.8032
18.7648,528,1.7032
18.7691,477,1.5387
18.7734,482,1.5548
18.7777,547,1.7645
18.7820,576,1.8581
18.7863,550,1.7742
18.7906,523,1.6871
18.7951,529,1.7065
18.7994,538,1.7355
18.8036,516,1.6645
18.8080,474,1.5290
18.8122,470,1.5161
18.8165,545,1.7581
18.8208,595,1.9194
18.8252,560,1.8065
18.8295,489,1.5774
18.8339,508,1.6387
18.8382,596,1.9226
18.8425,618,1.9935
18.8469,554,1.7871
18.8512,515,1.6613
18.8555,562,1.8129
18.8599,627,2.0226
18.8642,595,1.9194
18.8685,518,1.6710
18.8729,516,1.6645
18.8772,585,1.8871
18.8815,613,1.9774
18.8859,564,1.8194
18.8904,504,1.6258
18.8947,525,1.6935
18.8991,569,1.8355
18.9034,552,1.7806
18.9077,482,1.5548
18.9121,444,1.4323
18.9164,475,1.5323
18.9207,508,1.6387
18.9250,471,1.5194
18.9294,417,1.3452
18.9336,429,1.3839
18.9379,493,1.5903
18.9422,503,1.6226
18.9465,459,1.4806
18.9508,419,1.3516
18.9551,447,1.4419
18.9594,495,1.5968
18.9637,477,1.5387
18.9680,438,1.4129
18.9723,453,1.4613
18.9766,508,1.6387
18.9809,521,1.6806
18.9852,485,1.5645
18.9895,432,1.3935
18.9938,445,1.4355
18.9981,499,1.6097
19.0024,498,1.6065
19.0067,444,1.4323
19.0110,412,1.3290
19.0153,465,1.5000
19.0198,530,1.7097
19.0242,508,1.6387
19.0287,441,1.4226
19.0330,446,1.4387
19.0373,523,1.6871
19.0416,558,1.8000
19.0459,504,1.6258
19.0502,456,1.4710
19.0546,488,1.5742
19.0589,529,1.7065
19.0632,539,1.7387
19.0675,503,1.6226
19.0718,482,1.5548
19.0761,514,1.6581
19.0804,538,1.7355
19.0847,503,1.6226
19.0895,454,1.4645
19.0938,469,1.5129
19.0981,508,1.6387
19.1024,498,1.6065
19.1067,436,1.4065
19.1110,417,1.3452
19.1154,468,1.5097
19.1197,522,1.6839
19.1240,496,1.6000
19.1283,446,1.4387
19.1326,461,1.4871
19.1370,517,1.6677
19.1413,542,1.7484
19.1456,517,1.6677
19.1498,496,1.6000
19.1541,527,1.7000
19.1585,582,1.8774
19.1628,573,1.8484
19.1671,520,1.6774
19.1719,499,1.6097
19.1763,547,1.7645
19.1806,589,1.9000
19.1849,561,1.8097
19.1892,511,1.6484
19.1935,516,1.6645
19.1978,562,1.8129
19.2021,566,1.8258
19.2064,509,1.6419
19.2107,484,1.5613
19.2150,532,1.7161
19.2193,594,1.9161
19.2236,580,1.8710
19.2280,523,1.6871
19.2323,514,1.6581
19.2366,567,1.8290
19.2409,599,1.9323
19.2452,559,1.8032
19.2495,512,1.6516
19.2538,526,1.6968
19.2581,553,1.7839
19.2624,527,1.7000
19.2667,478,1.5419
19.2710,482,1.5548
19.2753,533,1.7194
19.2797,572,1.8452
19.2840,538,1.7355
19.2883,470,1.5161
19.2925,476,1.5355
19.2969,540,1.7419
19.3012,574,1.8516
19.3055,543,1.7516
19.3098,502,1.6194
19.3148,528,1.7032
19.3192,583,1.8806
19.3236,594,1.9161
19.3279,617,1.9903
19.3322,710,2.2903
19.3364,856,2.7613
19.3407,935,3.0161
19.3450,814,2.6258
19.3492,631,2.0355
19.3535,547,1.7645
19.3578,528,1.7032
19.3621,499,1.6097
19.3663,439,1.4161
19.3706,424,1.3677
19.3748,474,1.5290
19.3791,515,1.6613
19.3834,496,1.6000
19.3877,450,1.4516
19.3919,442,1.4258
19.3962,488,1.5742
19.4004,514,1.6581
19.4047,476,1.5355
19.4091,433,1.3968
19.4134,450,1.4516
19.4176,507,1.6355
19.4219,523,1.6871
19.4262,473,1.5258
19.4305,441,1.4226
19.4348,490,1.5806
19.4391,545,1.7581
19.4434,535,1.7258
19.4477,486,1.5677
19.4520,414,1.3355
19.4563,390,1.2581
19.4606,431,1.3903
19.4649,418,1.3484
19.4692,373,1.2032
19.4735,401,1.2935
19.4778,463,1.4935
19.4821,478,1.5419
19.4864,450,1.4516
19.4907,444,1.4323
19.4950,491,1.5839
19.4993,510,1.6452
19.5036,459,1.4806
19.5079,406,1.3097
19.5122,426,1.3742
19.5165,498,1.6065
19.5208,536,1.7290
19.5251,504,1.6258
19.5294,471,1.5194
19.5337,487,1.5710
19.5380,526,1.6968
19.5422,523,1.6871
19.5466,447,1.4419
19.5508,406,1.3097
19.5552,459,1.4806
19.5594,527,1.7000
19.5637,540,1.7419
19.5680,508,1.6387
19.5723,520,1.6774
19.5766,573,1.8484
19.5808,580,1.8710
19.5852,502,1.6194
19.5895,453,1.4613
19.5938,497,1.6032
19.5981,551,1.7774
19.6023,535,1.7258
19.6066,487,1.5710
19.6109,484,1.5613
19.6152,529,1.7065
19.6195,558,1.8000
19.6238,499,1.6097
19.6281,416,1.3419
19.6324,396,1.2774
19.6367,447,1.4419
19.6410,486,1.5677
19.6453,467,1.5065
19.6496,440,1.4194
19.6539,473,1.5258
19.6582,512,1.6516
19.6625,501,1.6161
19.6668,445,1.4355
19.6711,421,1.3581
19.6754,474,1.5290
19.6797,509,1.6419
19.6840,469,1.5129
19.6883,427,1.3774
19.6926,462,1.4903
19.6969,544,1.7548
19.7012,564,1.8194
19.7055,512,1.6516
19.7098,463,1.4935
19.7140,473,1.5258
19.7183,510,1.6452
19.7226,508,1.6387
19.7269,464,1.4968
19.7312,447,1.4419
19.7355,487,1.5710
19.7398,518,1.6710
19.7441,482,1.5548
19.7484,439,1.4161
19.7527,455,1.4677
19.7570,528,1.7032
19.7613,555,1.7903
19.7656,512,1.6516
19.7698,485,1.5645
19.7741,530,1.7097
19.7785,575,1.8548
19.7828,557,1.7968
19.7871,513,1.6548
19.7914,516,1.6645
19.7957,571,1.8419
19.8000,607,1.9581
19.8043,567,1.8290
19.8086,519,1.6742
19.8129,535,1.7258
19.8172,577,1.8613
19.8215,574,1.8516
19.8258,512,1.6516
19.8300,485,1.5645
19.8344,547,1.7645
19.8387,595,1.9194
19.8430,545,1.7581
19.8473,464,1.4968
19.8516,437,1.4097
19.8559,463,1.4935
19.8602,469,1.5129
19.8645,438,1.4129
19.8688,432,1.3935
19.8730,484,1.5613
19.8774,557,1.7968
19.8817,547,1.7645
19.8860,469,1.5129
19.8903,416,1.3419
19.8946,453,1.4613
19.8989,497,1.6032
19.9032,483,1.5581
19.9075,435,1.4032
19.9118,441,1.4226
19.9161,494,1.5935
19.9205,504,1.6258
19.9250,443,1.4290
19.9294,399,1.2871
19.9337,427,1.3774
19.9380,486,1.5677
19.9423,488,1.5742
19.9466,441,1.4226
19.9509,439,1.4161
19.9552,506,1.6323
19.9595,539,1.7387
19.9638,507,1.6355
19.9681,491,1.5839
19.9723,523,1.6871
19.9766,573,1.8484
19.9809,589,1.9000
19.9853,553,1.7839
19.9895,527,1.7000
19.9938,560,1.8065
19.9981,600,1.9355
20.0024,585,1.8871
20.0067,543,1.7516
20.0110,545,1.7581
20.0159,600,1.9355
20.0206,604,1.9484
20.0307,462,1.4903
20.0352,495,1.5968
20.0397,500,1.6129
20.0443,451,1.4548
20.0488,421,1.3581
20.0531,466,1.5032
20.0578,581,1.8742
20.0621,687,2.2161
20.0664,772,2.4903
20.0707,874,2.8194
20.0750,973,3.1387
20.0793,949,3.0613
20.0836,775,2.5000
20.0880,581,1.8742
20.0923,516,1.6645
20.0967,560,1.8065
20.1011,600,1.9355
20.1054,576,1.8581
20.1096,521,1.6806
20.1139,510,1.6452
20.1182,535,1.7258
20.1226,534,1.7226
20.1269,533,1.7194
20.1314,555,1.7903
20.1357,613,1.9774
20.1400,648,2.0903
20.1443,619,1.9968
20.1486,556,1.7935
20.1529,551,1.7774
20.1572,575,1.8548
20.1615,560,1.8065
20.1658,526,1.6968
20.1701,519,1.6742
20.1744,563,1.8161
20.1788,612,1.9742
20.1831,596,1.9226
20.1874,558,1.8000
20.1917,555,1.7903
20.1960,589,1.9000
20.2003,624,2.0129
20.2047,599,1.9323
20.2089,553,1.7839
20.2138,556,1.7935
20.2182,591,1.9065
20.2228,592,1.9097
20.2272,552,1.7806
20.2316,560,1.8065
20.2367,622,2.0065
20.2410,641,2.0677
20.2453,595,1.9194
20.2496,575,1.8548
20.2539,618,1.9935
20.2582,646,2.0839
20.2625,615,1.9839
20.2668,550,1.7742
20.2711,521,1.6806
20.2754,547,1.7645
20.2797,560,1.8065
20.2840,514,1.6581
20.2883,454,1.4645
20.2926,467,1.5065
20.2969,513,1.6548
20.3012,521,1.6806
20.3062,457,1.4742
20.3105,430,1.3871
20.3148,468,1.5097
20.3192,509,1.6419
20.3235,508,1.6387
20.3278,492,1.5871
20.3321,511,1.6484
20.3365,550,1.7742
20.3408,540,1.7419
20.3451,481,1.5516
20.3494,447,1.4419
20.3537,468,1.5097
20.3580,501,1.6161
20.3623,489,1.5774
20.3666,444,1.4323
20.3709,426,1.3742
20.3752,464,1.4968
20.3795,491,1.5839
20.3842,440,1.4194
20.3885,388,1.2516
20.3928,403,1.3000
20.3971,459,1.4806
20.4014,482,1.5548
20.4057,448,1.4452
20.4100,432,1.3935
20.4143,467,1.5065
20.4186,487,1.5710
20.4229,457,1.4742
20.4272,411,1.3258
20.4315,411,1.3258
20.4358,477,1.5387
20.4402,528,1.7032
20.4444,518,1.6710
20.4488,497,1.6032
20.4531,520,1.6774
20.4574,554,1.7871
20.4617,553,1.7839
20.4660,516,1.6645
20.4703,508,1.6387
20.4746,529,1.7065
20.4790,539,1.7387
20.4832,515,1.6613
20.4875,480,1.5484
20.4919,492,1.5871
20.4962,546,1.7613
20.5005,560,1.8065
20.5048,510,1.6452
20.5091,475,1.5323
20.5134,490,1.5806
20.5177,514,1.6581
20.5220,504,1.6258
20.5263,484,1.5613
20.5306,489,1.5774
20.5349,507,1.6355
20.5393,489,1.5774
20.5435,450,1.4516
20.5478,437,1.4097
20.5522,483,1.5581
20.5565,535,1.7258
20.5607,554,1.7871
20.5650,524,1.6903
20.5693,480,1.5484
20.5737,478,1.5419
20.5780,490,1.5806
20.5823,469,1.5129
20.5865,425,1.3710
20.5909,426,1.3742
20.5952,495,1.5968
20.5995,527,1.7000
20.6038,493,1.5903
20.6081,452,1.4581
20.6130,478,1.5419
20.6173,547,1.7645
20.6216,574,1.8516
20.6259,530,1.7097
20.6302,500,1.6129
20.6345,522,1.6839
20.6389,548,1.7677
20.6432,535,1.7258
20.6475,507,1.6355
20.6518,506,1.6323
20.6561,531,1.7129
20.6604,559,1.8032
20.6647,533,1.7194
20.6690,478,1.5419
20.6733,475,1.5323
20.6776,521,1.6806
20.6819,533,1.7194
20.6862,496,1.6000
20.6905,467,1.5065
20.6949,502,1.6194
20.6992,547,1.7645
20.7035,534,1.7226
20.7077,499,1.6097
20.7120,492,1.5871
20.7164,509,1.6419
20.7207,510,1.6452
20.7250,487,1.5710
20.7292,461,1.4871
20.7335,477,1.5387
20.7379,508,1.6387
20.7422,524,1.6903
20.7465,570,1.8387
20.7508,685,2.2097
20.7556,864,2.7871
20.7599,973,3.1387
20.7641,902,2.9097
20.7684,736,2.3742
20.7727,635,2.0484
20.7771,600,1.9355
20.7814,551,1.7774
20.7856,491,1.5839
20.7903,495,1.5968
20.7946,570,1.8387
20.7990,619,1.9968
20.8033,592,1.9097
20.8076,551,1.7774
20.8119,553,1.7839
20.8162,575,1.8548
20.8207,564,1.8194
20.8251,506,1.6323
20.8294,478,1.5419
20.8336,508,1.6387
20.8379,525,1.6935
20.8422,487,1.5710
20.8464,437,1.4097
20.8507,427,1.3774
20.8549,473,1.5258
20.8592,491,1.5839
20.8634,448,1.4452
20.8677,407,1.3129
20.8719,421,1.3581
20.8761,448,1.4452
20.8804,423,1.3645
20.8847,371,1.1968
20.8890,357,1.1516
20.8933,402,1.2968
20.8976,458,1.4774
20.9019,465,1.5000
20.9062,419,1.3516
20.9105,400,1.2903
20.9148,423,1.3645
20.9191,429,1.3839
20.9234,408,1.3161
20.9277,389,1.2548
20.9320,412,1.3290
20.9364,461,1.4871
20.9408,474,1.5290
20.9451,444,1.4323
20.9495,438,1.4129
20.9538,480,1.5484
20.9581,539,1.7387
20.9625,558,1.8000
20.9668,529,1.7065
20.9711,522,1.6839
20.9754,554,1.7871
20.9798,554,1.7871
20.9841,517,1.6677
20.9885,487,1.5710
20.9928,508,1.6387
20.9971,537,1.7323
21.0015,532,1.7161
21.0058,504,1.6258
21.0102,503,1.6226
21.0145,538,1.7355
21.0189,569,1.8355
21.0232,555,1.7903
21.0276,546,1.7613
21.0319,581,1.8742
21.0362,621,2.0032
21.0405,601,1.9387
21.0449,545,1.7581
21.0492,513,1.6548
21.0535,540,1.7419
21.0578,566,1.8258
21.0620,550,1.7742
21.0664,502,1.6194
21.0707,479,1.5452
21.0749,497,1.6032
21.0792,522,1.6839
21.0835,511,1.6484
21.0878,473,1.5258
21.0921,464,1.4968
21.0965,493,1.5903
21.1008,496,1.6000
21.1051,468,1.5097
21.1094,456,1.4710
21.1137,475,1.5323
21.1203,507,1.6355
21.1247,485,1.5645
21.1291,472,1.5226
21.1333,506,1.6323
21.1377,524,1.6903
21.1420,497,1.6032
21.1463,459,1.4806
21.1506,459,1.4806
21.1548,494,1.5935
21.1591,515,1.6613
21.1634,486,1.5677
21.1677,452,1.4581
21.1720,466,1.5032
21.1762,496,1.6000
21.1805,477,1.5387
21.1848,405,1.3065
21.1896,386,1.2452
21.1939,444,1.4323
21.1981,502,1.6194
21.2024,477,1.5387
21.2067,435,1.4032
21.2110,454,1.4645
21.2152,511,1.6484
21.2195,555,1.7903
21.2238,537,1.7323
21.2281,519,1.6742
21.2323,540,1.7419
21.2366,588,1.8968
21.2409,602,1.9419
21.2452,571,1.8419
21.2495,556,1.7935
21.2537,589,1.9000
21.2580,624,2.0129
21.2622,616,1.9871
21.2665,581,1.8742
21.2708,569,1.8355
21.2751,599,1.9323
21.2793,624,2.0129
21.2836,591,1.9065
21.2885,590,1.9032
21.2928,636,2.0516
21.2971,682,2.2000
21.3013,674,2.1742
21.3056,633,2.0419
21.3099,632,2.0387
21.3142,654,2.1097
21.3185,639,2.0613
21.3227,577,1.8613
21.3270,518,1.6710
21.3313,507,1.6355
21.3356,518,1.6710
21.3398,504,1.6258
21.3441,471,1.5194
21.3484,444,1.4323
21.3527,483,1.5581
21.3570,545,1.7581
21.3612,577,1.8613
21.3655,611,1.9710
21.3704,689,2.2226
21.3747,790,2.5484
21.3789,841,2.7129
21.3832,789,2.5452
21.3874,678,2.1871
21.3917,610,1.9677
21.3960,582,1.8774
21.4003,514,1.6581
21.4045,403,1.3000
21.4088,329,1.0613
21.4131,368,1.1871
21.4174,455,1.4677
21.4217,529,1.7065
21.4260,593,1.9129
21.4302,658,2.1226
21.4345,654,2.1097
21.4388,552,1.7806
21.4431,416,1.3419
21.4473,308,0.9935
21.4516,287,0.9258
21.4559,311,1.0032
21.4602,326,1.0516
21.4645,312,1.0065
21.4688,310,1.0000
21.4731,348,1.1226
21.4773,395,1.2742
21.4816,385,1.2419
21.4859,351,1.1323
21.4901,339,1.0935
21.4944,377,1.2161
21.4988,423,1.3645
21.5031,416,1.3419
21.5074,390,1.2581
21.5116,411,1.3258
21.5159,462,1.4903
21.5202,472,1.5226
21.5245,424,1.3677
21.5288,401,1.2935
21.5330,431,1.3903
21.5373,477,1.5387
21.5416,470,1.5161
21.5459,438,1.4129
21.5502,442,1.4258
21.5545,486,1.5677
21.5588,506,1.6323
21.5631,468,1.5097
21.5673,440,1.4194
21.5716,449,1.4484
21.5759,465,1.5000
21.5802,458,1.4774
21.5845,441,1.4226
21.5888,445,1.4355
21.5930,482,1.5548
21.5974,518,1.6710
21.6017,500,1.6129
21.6060,450,1.4516
21.6102,436,1.4065
21.6145,484,1.5613
21.6188,499,1.6097
21.6231,468,1.5097
21.6274,462,1.4903
21.6317,504,1.6258
21.6360,562,1.8129
21.6402,564,1.8194
21.6445,533,1.7194
21.6488,543,1.7516
21.6531,594,1.9161
21.6574,631,2.0355
21.6617,616,1.9871
21.6659,586,1.8903
21.6702,620,2.0000
21.6745,681,2.1968
21.6788,704,2.2710
21.6830,672,2.1677
21.6873,623,2.0097
21.6916,626,2.0194
21.6958,649,2.0935
21.7001,638,2.0581
21.7044,581,1.8742
21.7087,547,1.7645
21.7133,571,1.8419
21.7176,585,1.8871
21.7231,516,1.6645
21.7275,469,1.5129
21.7317,491,1.5839
21.7360,536,1.7290
21.7403,520,1.6774
21.7446,469,1.5129
21.7490,441,1.4226
21.7533,452,1.4581
21.7575,445,1.4355
21.7619,408,1.3161
21.7661,366,1.1806
21.7703,360,1.1613
21.7747,374,1.2065
21.7790,336,1.0839
21.7833,259,0.8355
21.7876,243,0.7839
21.7919,288,0.9290
21.7961,339,1.0935
21.8004,358,1.1548
21.8047,346,1.1161
21.8089,351,1.1323
21.8132,401,1.2935
21.8175,430,1.3871
21.8217,427,1.3774
21.8260,412,1.3290
21.8306,434,1.4000
21.8349,462,1.4903
21.8392,446,1.4387
21.8436,395,1.2742
21.8478,375,1.2097
21.8522,421,1.3581
21.8565,481,1.5516
21.8607,471,1.5194
21.8651,429,1.3839
21.8694,423,1.3645
21.8736,453,1.4613
21.8779,478,1.5419
21.8822,468,1.5097
21.8865,448,1.4452
21.8908,470,1.5161
21.8951,514,1.6581
21.8995,514,1.6581
21.9038,472,1.5226
21.9082,441,1.4226
21.9125,479,1.5452
21.9168,517,1.6677
21.9211,512,1.6516
21.9255,471,1.5194
21.9298,459,1.4806
21.9341,494,1.5935
21.9385,509,1.6419
21.9428,474,1.5290
21.9471,444,1.4323
21.9514,481,1.5516
21.9558,549,1.7710
21.9601,563,1.8161
21.9644,549,1.7710
21.9688,575,1.8548
21.9732,653,2.1065
21.9775,703,2.2677
21.9818,683,2.2032
21.9862,623,2.0097
21.9905,597,1.9258
21.9949,610,1.9677
21.9992,611,1.9710
22.0035,563,1.8161
22.0079,513,1.6548
22.0122,508,1.6387
22.0166,502,1.6194
22.0210,445,1.4355
22.0254,402,1.2968
22.0299,435,1.4032
22.0342,505,1.6290
22.0385,537,1.7323
22.0428,512,1.6516
22.0472,493,1.5903
22.0515,524,1.6903
22.0558,574,1.8516
22.0601,603,1.9452
22.0644,613,1.9774
22.0687,673,2.1710
22.0730,818,2.6387
22.0773,972,3.1355
22.0816,997,3.2161
22.0859,998,3.2194
22.0902,987,3.1839
22.0945,906,2.9226
22.0988,760,2.4516
22.1031,615,1.9839
22.1074,543,1.7516
22.1117,563,1.8161
22.1160,595,1.9194
22.1203,583,1.8806
22.1246,533,1.7194
22.1289,509,1.6419
22.1332,528,1.7032
22.1375,545,1.7581
22.1418,521,1.6806
22.1462,493,1.5903
22.1505,513,1.6548
22.1549,550,1.7742
22.1592,535,1.7258
22.1635,490,1.5806
22.1678,468,1.5097
22.1722,510,1.6452
22.1765,557,1.7968
22.1808,554,1.7871
22.1852,540,1.7419
22.1895,578,1.8645
22.1938,638,2.0581
22.1981,652,2.1032
22.2025,610,1.9677
22.2068,586,1.8903
22.2111,604,1.9484
22.2155,625,2.0161
22.2198,601,1.9387
22.2241,563,1.8161
22.2284,541,1.7452
22.2328,540,1.7419
22.2371,528,1.7032
22.2414,498,1.6065
22.2457,473,1.5258
22.2501,512,1.6516
22.2544,587,1.8935
22.2588,613,1.9774
22.2631,576,1.8581
22.2674,551,1.7774
22.2717,573,1.8484
22.2760,613,1.9774
22.2802,612,1.9742
22.2845,567,1.8290
22.2888,565,1.8226
22.2931,622,2.0065
22.2974,660,2.1290
22.3017,627,2.0226
22.3060,574,1.8516
22.3103,589,1.9000
22.3146,635,2.0484
22.3189,640,2.0645
22.3232,599,1.9323
22.3275,574,1.8516
22.3318,609,1.9645
22.3361,635,2.0484
22.3404,608,1.9613
22.3447,567,1.8290
22.3489,581,1.8742
22.3533,648,2.0903
22.3576,681,2.1968
22.3619,644,2.0774
22.3662,586,1.8903
22.3706,603,1.9452
22.3749,646,2.0839
22.3792,656,2.1161
22.3836,616,1.9871
22.3879,571,1.8419
22.3922,550,1.7742
22.3966,534,1.7226
22.4009,491,1.5839
22.4053,474,1.5290
22.4096,502,1.6194
22.4139,559,1.8032
22.4183,558,1.8000
22.4226,514,1.6581
22.4269,504,1.6258
22.4313,544,1.7548
22.4356,582,1.8774
22.4399,554,1.7871
22.4442,490,1.5806
22.4486,486,1.5677
22.4529,555,1.7903
22.4572,572,1.8452
22.4615,486,1.5677
22.4658,376,1.2129
22.4701,315,1.0161
22.4744,265,0.8548
22.4787,11,0.0355
22.4830,0,0.0000
22.4873,66,0.2129
22.4916,273,0.8806
22.4959,429,1.3839
22.5002,427,1.3774
22.5045,347,1.1194
22.5088,340,1.0968
22.5131,428,1.3806
22.5174,467,1.5065
22.5217,409,1.3194
22.5260,344,1.1097
22.5303,365,1.1774
22.5346,434,1.4000
22.5389,439,1.4161
22.5432,376,1.2129
22.5475,332,1.0710
22.5518,355,1.1452
22.5561,379,1.2226
22.5604,343,1.1065
22.5648,308,0.9935
22.5691,359,1.1581
22.5734,450,1.4516
22.5777,475,1.5323
22.5821,407,1.3129
22.5864,385,1.2419
22.5907,435,1.4032
22.5951,472,1.5226
22.5994,433,1.3968
22.6037,352,1.1355
22.6081,346,1.1161
22.6124,425,1.3710
22.6167,479,1.5452
22.6212,450,1.4516
22.6256,412,1.3290
22.6300,437,1.4097
22.6343,486,1.5677
22.6386,477,1.5387
22.6430,399,1.2871
22.6473,356,1.1484
22.6516,402,1.2968
22.6559,464,1.4968
22.6602,436,1.4065
22.6646,379,1.2226
22.6689,378,1.2194
22.6732,424,1.3677
22.6775,441,1.4226
22.6818,418,1.3484
22.6861,396,1.2774
22.6904,443,1.4290
22.6947,514,1.6581
22.6990,529,1.7065
22.7033,510,1.6452
22.7076,518,1.6710
22.7120,558,1.8000
22.7162,594,1.9161
22.7205,605,1.9516
22.7248,617,1.9903
22.7291,715,2.3065
22.7334,874,2.8194
22.7377,972,3.1355
22.7420,906,2.9226
22.7463,749,2.4161
22.7506,637,2.0548
22.7549,561,1.8097
22.7592,498,1.6065
22.7635,455,1.4677
22.7678,452,1.4581
22.7720,495,1.5968
22.7763,519,1.6742
22.7806,461,1.4871
22.7849,410,1.3226
22.7892,464,1.4968
22.7935,577,1.8613
22.7978,618,1.9935
22.8021,569,1.8355
22.8064,548,1.7677
22.8107,601,1.9387
22.8150,650,2.0968
22.8193,635,2.0484
22.8236,578,1.8645
22.8279,560,1.8065
22.8322,597,1.9258
22.8365,618,1.9935
22.8407,553,1.7839
22.8450,476,1.5355
22.8493,492,1.5871
22.8536,549,1.7710
22.8579,545,1.7581
22.8623,488,1.5742
22.8666,470,1.5161
22.8709,530,1.7097
22.8753,589,1.9000
22.8796,571,1.8419
22.8839,507,1.6355
22.8882,489,1.5774
22.8926,534,1.7226
22.8969,537,1.7323
22.9012,430,1.3871
22.9056,351,1.1323
22.9099,390,1.2581
22.9142,485,1.5645
22.9187,501,1.6161
22.9266,487,1.5710
22.9310,530,1.7097
22.9353,568,1.8323
22.9397,547,1.7645
22.9440,514,1.6581
22.9483,541,1.7452
22.9527,603,1.9452
22.9570,615,1.9839
22.9613,528,1.7032
22.9656,468,1.5097
22.9699,525,1.6935
22.9742,615,1.9839
22.9785,632,2.0387
22.9828,575,1.8548
22.9871,538,1.7355
22.9914,561,1.8097
22.9957,559,1.8032
23.0000,499,1.6097
23.0043,435,1.4032
23.0086,460,1.4839
23.0130,558,1.8000
23.0173,580,1.8710
23.0216,523,1.6871
23.0259,489,1.5774
23.0302,527,1.7000
23.0345,558,1.8000
23.0388,518,1.6710
23.0431,450,1.4516
23.0474,437,1.4097
23.0517,497,1.6032
23.0560,531,1.7129
23.0603,494,1.5935
23.0647,442,1.4258
23.0690,460,1.4839
23.0733,521,1.6806
23.0776,534,1.7226
23.0820,484,1.5613
23.0863,450,1.4516
23.0906,499,1.6097
23.0952,556,1.7935
23.0995,524,1.6903
23.1038,451,1.4548
23.1082,459,1.4806
23.1125,514,1.6581
23.1169,528,1.7032
23.1212,487,1.5710
23.1255,453,1.4613
23.1298,500,1.6129
23.1342,561,1.8097
23.1385,536,1.7290
23.1428,453,1.4613
23.1471,428,1.3806
23.1515,475,1.5323
23.1559,514,1.6581
23.1602,476,1.5355
23.1645,444,1.4323
23.1689,474,1.5290
23.1732,525,1.6935
23.1775,527,1.7000
23.1817,476,1.5355
23.1860,429,1.3839
23.1903,451,1.4548
23.1947,487,1.5710
23.1990,459,1.4806
23.2033,412,1.3290
23.2076,425,1.3710
23.2119,491,1.5839
23.2162,531,1.7129
23.2205,492,1.5871
23.2248,423,1.3645
23.2290,425,1.3710
23.2333,485,1.5645
23.2376,488,1.5742
23.2419,421,1.3581
23.2462,392,1.2645
23.2505,424,1.3677
23.2548,458,1.4774
23.2591,434,1.4000
23.2634,379,1.2226
23.2678,387,1.2484
23.2721,467,1.5065
23.2764,499,1.6097
23.2808,463,1.4935
23.2851,427,1.3774
23.2894,481,1.5516
23.2937,557,1.7968
23.2982,546,1.7613
23.3025,476,1.5355
23.3069,455,1.4677
23.3112,499,1.6097
23.3155,528,1.7032
23.3198,477,1.5387
23.3242,415,1.3387
23.3285,435,1.4032
23.3328,498,1.6065
23.3372,486,1.5677
23.3415,412,1.3290
23.3458,394,1.2710
23.3501,454,1.4645
23.3545,501,1.6161
23.3588,473,1.5258
23.3632,418,1.3484
23.3675,426,1.3742
23.3718,492,1.5871
23.3761,505,1.6290
23.3804,435,1.4032
23.3847,359,1.1581
23.3890,370,1.1935
23.3933,435,1.4032
23.3976,478,1.5419
23.4019,515,1.6613
23.4061,614,1.9806
23.4104,780,2.5161
23.4147,913,2.9452
23.4190,855,2.7581
23.4233,654,2.1097
23.4276,507,1.6355
23.4319,478,1.5419
23.4362,472,1.5226
23.4405,428,1.3806
23.4448,399,1.2871
23.4491,445,1.4355
23.4534,507,1.6355
23.4576,496,1.6000
23.4619,423,1.3645
23.4663,398,1.2839
23.4706,462,1.4903
23.4750,533,1.7194
23.4793,507,1.6355
23.4836,436,1.4065
23.4880,433,1.3968
23.4923,498,1.6065
23.4966,549,1.7710
23.5010,512,1.6516
23.5053,471,1.5194
23.5096,497,1.6032
23.5140,538,1.7355
23.5183,514,1.6581
23.5228,461,1.4871
23.5273,467,1.5065
23.5317,533,1.7194
23.5360,560,1.8065
23.5404,508,1.6387
23.5447,475,1.5323
23.5491,507,1.6355
23.5534,541,1.7452
23.5577,508,1.6387
23.5620,440,1.4194
23.5663,430,1.3871
23.5706,504,1.6258
23.5749,556,1.7935
23.5792,539,1.7387
23.5835,495,1.5968
23.5878,502,1.6194
23.5921,575,1.8548
23.5965,607,1.9581
23.6007,547,1.7645
23.6054,494,1.5935
23.6097,530,1.7097
23.6140,589,1.9000
23.6184,592,1.9097
23.6226,554,1.7871
23.6269,544,1.7548
23.6312,583,1.8806
23.6355,607,1.9581
23.6398,554,1.7871
23.6441,511,1.6484
23.6484,551,1.7774
23.6527,626,2.0194
23.6570,636,2.0516
23.6614,588,1.8968
23.6657,570,1.8387
23.6700,627,2.0226
23.6744,674,2.1742
23.6787,624,2.0129
23.6831,534,1.7226
23.6874,507,1.6355
23.6917,539,1.7387
23.6961,539,1.7387
23.7004,467,1.5065
23.7047,416,1.3419
23.7091,456,1.4710
23.7134,520,1.6774
23.7178,519,1.6742
23.7221,459,1.4806
23.7264,440,1.4194
23.7307,484,1.5613
23.7351,516,1.6645
23.7394,490,1.5806
23.7437,459,1.4806
23.7480,486,1.5677
23.7524,541,1.7452
23.7567,544,1.7548
23.7610,500,1.6129
23.7654,479,1.5452
23.7697,532,1.7161
23.7740,577,1.8613
23.7783,553,1.7839
23.7826,503,1.6226
23.7868,510,1.6452
23.7911,572,1.8452
23.7955,601,1.9387
23.7998,531,1.7129
23.8041,458,1.4774
23.8083,497,1.6032
23.8126,570,1.8387
23.8170,572,1.8452
23.8223,507,1.6355
23.8267,505,1.6290
23.8311,559,1.8032
23.8354,577,1.8613
23.8397,531,1.7129
23.8440,486,1.5677
23.8483,525,1.6935
23.8526,596,1.9226
23.8570,612,1.9742
23.8612,562,1.8129
23.8655,525,1.6935
23.8698,559,1.8032
23.8741,594,1.9161
23.8784,571,1.8419
23.8827,511,1.6484
23.8870,518,1.6710
23.8913,588,1.8968
23.8956,606,1.9548
23.8999,535,1.7258
23.9042,475,1.5323
23.9085,503,1.6226
23.9128,563,1.8161
23.9171,579,1.8677
23.9214,548,1.7677
23.9257,530,1.7097
23.9300,570,1.8387
23.9343,610,1.9677
23.9386,584,1.8839
23.9429,541,1.7452
23.9471,547,1.7645
23.9514,588,1.8968
23.9557,592,1.9097
23.9600,523,1.6871
23.9643,484,1.5613
23.9686,528,1.7032
23.9729,598,1.9290
23.9773,584,1.8839
23.9816,514,1.6581
23.9860,500,1.6129
23.9903,547,1.7645
23.9948,563,1.8161
23.9992,500,1.6129
24.0035,469,1.5129
24.0078,520,1.6774
24.0122,587,1.8935
24.0165,582,1.8774
24.0208,522,1.6839
24.0252,471,1.5194
24.0295,498,1.6065
24.0338,540,1.7419
24.0381,521,1.6806
24.0425,469,1.5129
24.0468,462,1.4903
24.0511,504,1.6258
24.0554,503,1.6226
24.0598,456,1.4710
24.0642,433,1.3968
24.0685,493,1.5903
24.0728,571,1.8419
24.0771,567,1.8290
24.0814,512,1.6516
24.0857,512,1.6516
24.0900,580,1.8710
24.0943,608,1.9613
24.0986,551,1.7774
24.1029,458,1.4774
24.1072,425,1.3710
24.1115,445,1.4355
24.1158,480,1.5484
24.1201,531,1.7129
24.1244,631,2.0355
24.1287,778,2.5097
24.1329,916,2.9548
24.1372,898,2.8968
24.1415,713,2.3000
24.1458,542,1.7484
24.1501,515,1.6613
24.1544,531,1.7129
24.1587,509,1.6419
24.1630,464,1.4968
24.1673,463,1.4935
24.1716,507,1.6355
24.1760,505,1.6290
24.1803,413,1.3323
24.1847,360,1.1613
24.1890,394,1.2710
24.1933,444,1.4323
24.1976,436,1.4065
24.2020,395,1.2742
24.2063,407,1.3129
24.2106,483,1.5581
24.2150,530,1.7097
24.2193,493,1.5903
24.2236,450,1.4516
24.2280,480,1.5484
24.2323,538,1.7355
24.2366,537,1.7323
24.2410,466,1.5032
24.2453,434,1.4000
24.2496,479,1.5452
24.2540,514,1.6581
24.2583,488,1.5742
24.2626,449,1.4484
24.2671,477,1.5387
24.2714,540,1.7419
24.2757,553,1.7839
24.2800,495,1.5968
24.2843,451,1.4548
24.2886,491,1.5839
24.2929,552,1.7806
24.2972,555,1.7903
24.3015,488,1.5742
24.3057,468,1.5097
24.3101,530,1.7097
24.3143,537,1.7323
24.3186,468,1.5097
24.3229,412,1.3290
24.3272,433,1.3968
24.3315,500,1.6129
24.3358,510,1.6452
24.3401,460,1.4839
24.3444,442,1.4258
24.3487,499,1.6097
24.3530,554,1.7871
24.3573,551,1.7774
24.3616,502,1.6194
24.3659,492,1.5871
24.3702,536,1.7290
24.3746,562,1.8129
24.3789,524,1.6903
24.3832,500,1.6129
24.3876,546,1.7613
24.3919,611,1.9710
24.3963,604,1.9484
24.4006,520,1.6774
24.4049,455,1.4677
24.4093,480,1.5484
24.4136,511,1.6484
24.4180,477,1.5387
24.4229,438,1.4129
24.4273,462,1.4903
24.4318,516,1.6645
24.4361,510,1.6452
24.4404,451,1.4548
24.4448,433,1.3968
24.4491,492,1.5871
24.4535,538,1.7355
24.4578,496,1.6000
24.4621,448,1.4452
24.4664,464,1.4968
24.4708,525,1.6935
24.4751,548,1.7677
24.4794,488,1.5742
24.4837,431,1.3903
24.4880,463,1.4935
24.4923,523,1.6871
24.4966,531,1.7129
24.5009,482,1.5548
24.5052,466,1.5032
24.5095,504,1.6258
24.5138,537,1.7323
24.5181,504,1.6258
24.5224,446,1.4387
24.5267,464,1.4968
24.5310,524,1.6903
24.5353,537,1.7323
24.5396,461,1.4871
24.5439,395,1.2742
24.5482,438,1.4129
24.5524,516,1.6645
24.5567,539,1.7387
24.5610,497,1.6032
24.5653,475,1.5323
24.5697,510,1.6452
24.5740,528,1.7032
24.5784,472,1.5226
24.5827,418,1.3484
24.5870,456,1.4710
24.5913,534,1.7226
24.5957,542,1.7484
24.6000,461,1.4871
24.6043,422,1.3613
24.6086,473,1.5258
24.6129,532,1.7161
24.6173,512,1.6516
24.6216,456,1.4710
24.6259,453,1.4613
24.6302,509,1.6419
24.6346,534,1.7226
24.6390,502,1.6194
24.6433,477,1.5387
24.6476,514,1.6581
24.6520,564,1.8194
24.6564,557,1.7968
24.6607,499,1.6097
24.6650,471,1.5194
24.6693,516,1.6645
24.6736,556,1.7935
24.6779,511,1.6484
24.6822,450,1.4516
24.6865,467,1.5065
24.6908,521,1.6806
24.6950,526,1.6968
24.6994,462,1.4903
24.7037,436,1.4065
24.7079,489,1.5774
24.7122,555,1.7903
24.7165,545,1.7581
24.7209,474,1.5290
24.7254,443,1.4290
24.7298,497,1.6032
24.7344,545,1.7581
24.7388,500,1.6129
24.7431,464,1.4968
24.7474,517,1.6677
24.7517,576,1.8581
24.7560,562,1.8129
24.7604,497,1.6032
24.7647,473,1.5258
24.7689,536,1.7290
24.7732,587,1.8935
24.7776,561,1.8097
24.7819,513,1.6548
24.7862,530,1.7097
24.7905,591,1.9065
24.7949,604,1.9484
24.7993,537,1.7323
24.8036,484,1.5613
24.8079,526,1.6968
24.8122,580,1.8710
24.8167,555,1.7903
24.8211,480,1.5484
24.8254,442,1.4258
24.8297,493,1.5903
24.8340,537,1.7323
24.8383,504,1.6258
24.8426,458,1.4774
24.8469,478,1.5419
24.8512,533,1.7194
24.8555,550,1.7742
24.8598,499,1.6097
24.8641,481,1.5516
24.8684,574,1.8516
24.8728,730,2.3548
24.8771,842,2.7161
24.8814,887,2.8613
24.8857,901,2.9065
24.8901,855,2.7581
24.8946,741,2.3903
24.8989,581,1.8742
24.9032,475,1.5323
24.9075,499,1.6097
24.9118,567,1.8290
24.9161,573,1.8484
24.9204,514,1.6581
24.9248,499,1.6097
24.9291,558,1.8000
24.9334,593,1.9129
24.9377,541,1.7452
24.9420,466,1.5032
24.9463,456,1.4710
24.9506,510,1.6452
24.9549,515,1.6613
24.9592,458,1.4774
24.9635,423,1.3645
24.9678,454,1.4645
24.9721,505,1.6290
24.9764,500,1.6129
24.9808,447,1.4419
24.9851,453,1.4613
24.9894,503,1.6226
24.9937,516,1.6645
24.9980,471,1.5194
25.0023,429,1.3839
25.0066,457,1.4742
25.0109,535,1.7258
25.0152,555,1.7903
25.0195,496,1.6000
25.0238,462,1.4903
25.0284,500,1.6129
25.0329,550,1.7742
25.0374,541,1.7452
25.0426,505,1.6290
25.0471,534,1.7226
25.0516,572,1.8452
25.0560,555,1.7903
25.0603,520,1.6774
25.0646,518,1.6710
25.0690,558,1.8000
25.0733,598,1.9290
25.0776,579,1.8677
25.0819,535,1.7258
25.0862,534,1.7226
25.0904,581,1.8742
25.0947,602,1.9419
25.0990,557,1.7968
25.1034,525,1.6935
25.1077,560,1.8065
25.1119,605,1.9516
25.1162,592,1.9097
25.1204,542,1.7484
25.1246,535,1.7258
25.1289,599,1.9323
25.1331,660,2.1290
25.1373,634,2.0452
25.1416,562,1.8129
25.1458,559,1.8032
25.1501,618,1.9935
25.1543,633,2.0419
25.1585,582,1.8774
25.1628,532,1.7161
25.1670,556,1.7935
25.1713,600,1.9355
25.1755,586,1.8903
25.1799,523,1.6871
25.1841,487,1.5710
25.1885,516,1.6645
25.1927,536,1.7290
25.1970,503,1.6226
25.2013,465,1.5000
25.2056,471,1.5194
25.2099,512,1.6516
25.2142,526,1.6968
25.2185,494,1.5935
25.2227,485,1.5645
25.2271,527,1.7000
25.2314,559,1.8032
25.2356,538,1.7355
25.2399,465,1.5000
25.2442,439,1.4161
25.2485,482,1.5548
25.2528,528,1.7032
25.2571,493,1.5903
25.2613,435,1.4032
25.2656,432,1.3935
25.2700,484,1.5613
25.2742,509,1.6419
25.2785,484,1.5613
25.2828,455,1.4677
25.2871,480,1.5484
25.2914,525,1.6935
25.2957,524,1.6903
25.3000,497,1.6032
25.3042,498,1.6065
25.3085,535,1.7258
25.3127,550,1.7742
25.3170,501,1.6161
25.3214,444,1.4323
25.3258,472,1.5226
25.3302,548,1.7677
25.3345,566,1.8258
25.3388,506,1.6323
25.3431,474,1.5290
25.3474,498,1.6065
25.3516,521,1.6806
25.3559,482,1.5548
25.3602,424,1.3677
25.3645,414,1.3355
25.3688,469,1.5129
25.3731,500,1.6129
25.3777,457,1.4742
25.3821,395,1.2742
25.3864,397,1.2806
25.3906,445,1.4355
25.3949,449,1.4484
25.3992,403,1.3000
25.4034,391,1.2613
25.4077,440,1.4194
25.4120,494,1.5935
25.4162,481,1.5516
25.4205,432,1.3935
25.4248,441,1.4226
25.4290,507,1.6355
25.4333,540,1.7419
25.4376,506,1.6323
25.4418,462,1.4903
25.4461,480,1.5484
25.4503,542,1.7484
25.4546,551,1.7774
25.4589,490,1.5806
25.4632,457,1.4742
25.4675,497,1.6032
25.4717,537,1.7323
25.4760,512,1.6516
25.4803,472,1.5226
25.4846,500,1.6129
25.4889,556,1.7935
25.4932,580,1.8710
25.4976,542,1.7484
25.5019,496,1.6000
25.5062,514,1.6581
25.5105,554,1.7871
25.5148,551,1.7774
25.5191,487,1.5710
25.5234,451,1.4548
25.5277,492,1.5871
25.5320,529,1.7065
25.5364,495,1.5968
25.5407,430,1.3871
25.5450,420,1.3548
25.5493,473,1.5258
25.5536,503,1.6226
25.5579,466,1.5032
25.5621,421,1.3581
25.5664,429,1.3839
25.5707,462,1.4903
25.5750,450,1.4516
25.5793,404,1.3032
25.5836,391,1.2613
25.5879,454,1.4645
25.5922,533,1.7194
25.5964,538,1.7355
25.6007,495,1.5968
25.6050,487,1.5710
25.6092,530,1.7097
25.6135,541,1.7452
25.6178,465,1.5000
25.6222,393,1.2677
25.6266,424,1.3677
25.6309,536,1.7290
25.6352,630,2.0323
25.6395,693,2.2355
25.6438,779,2.5129
25.6481,894,2.8839
25.6523,883,2.8484
25.6566,710,2.2903
25.6609,526,1.6968
25.6651,449,1.4484
25.6694,468,1.5097
25.6736,500,1.6129
25.6779,488,1.5742
25.6822,462,1.4903
25.6865,495,1.5968
25.6908,560,1.8065
25.6950,563,1.8161
25.6993,497,1.6032
25.7036,463,1.4935
25.7078,512,1.6516
25.7121,558,1.8000
25.7164,527,1.7000
25.7206,464,1.4968
25.7249,455,1.4677
25.7292,506,1.6323
25.7334,526,1.6968
25.7377,484,1.5613
25.7420,447,1.4419
25.7463,480,1.5484
25.7506,530,1.7097
25.7549,530,1.7097
25.7591,478,1.5419
25.7634,463,1.4935
25.7677,518,1.6710
25.7719,562,1.8129
25.7762,531,1.7129
25.7806,483,1.5581
25.7849,489,1.5774
25.7892,544,1.7548
25.7935,567,1.8290
25.7978,516,1.6645
25.8022,452,1.4581
25.8065,473,1.5258
25.8108,536,1.7290
25.8151,538,1.7355
25.8194,476,1.5355
25.8237,447,1.4419
25.8280,492,1.5871
25.8323,545,1.7581
25.8366,528,1.7032
25.8409,481,1.5516
25.8452,506,1.6323
25.8495,579,1.8677
25.8538,594,1.9161
25.8581,550,1.7742
25.8624,503,1.6226
25.8667,513,1.6548
25.8710,529,1.7065
25.8754,491,1.5839
25.8796,446,1.4387
25.8839,452,1.4581
25.8882,517,1.6677
25.8925,560,1.8065
25.8967,525,1.6935
25.9010,477,1.5387
25.9053,502,1.6194
25.9096,565,1.8226
25.9138,587,1.8935
25.9181,528,1.7032
25.9224,490,1.5806
25.9267,511,1.6484
25.9309,568,1.8323
25.9352,545,1.7581
25.9395,462,1.4903
25.9438,446,1.4387
25.9480,519,1.6742
25.9523,596,1.9226
25.9566,584,1.8839
25.9608,551,1.7774
25.9652,559,1.8032
25.9694,567,1.8290
25.9737,550,1.7742
25.9780,504,1.6258
25.9822,483,1.5581
25.9866,523,1.6871
25.9909,559,1.8032
25.9952,532,1.7161
25.9995,471,1.5194
26.0038,475,1.5323
26.0081,547,1.7645
26.0124,587,1.8935
26.0167,549,1.7710
26.0210,495,1.5968
26.0253,515,1.6613
26.0296,574,1.8516
26.0339,574,1.8516
26.0382,513,1.6548
26.0425,464,1.4968
26.0469,492,1.5871
26.0512,530,1.7097
26.0555,520,1.6774
26.0598,488,1.5742
26.0641,510,1.6452
26.0684,574,1.8516
26.0727,578,1.8645
26.0770,520,1.6774
26.0813,484,1.5613
26.0856,509,1.6419
26.0899,553,1.7839
26.0941,568,1.8323
26.0984,541,1.7452
26.1027,519,1.6742
26.1069,545,1.7581
26.1112,587,1.8935
26.1155,578,1.8645
26.1197,531,1.7129
26.1240,519,1.6742
26.1283,565,1.8226
26.1326,598,1.9290
26.1368,565,1.8226
26.1411,519,1.6742
26.1454,525,1.6935
26.1497,557,1.7968
26.1540,549,1.7710
26.1582,505,1.6290
26.1625,488,1.5742
26.1668,530,1.7097
26.1711,561,1.8097
26.1753,546,1.7613
26.1796,497,1.6032
26.1839,481,1.5516
26.1882,513,1.6548
26.1925,544,1.7548
26.1968,527,1.7000
26.2011,491,1.5839
26.2054,496,1.6000
26.2097,542,1.7484
26.2140,542,1.7484
26.2184,492,1.5871
26.2228,480,1.5484
26.2272,512,1.6516
26.2316,533,1.7194
26.2359,513,1.6548
26.2402,482,1.5548
26.2445,495,1.5968
26.2489,541,1.7452
26.2532,565,1.8226
26.2575,547,1.7645
26.2618,522,1.6839
26.2661,544,1.7548
26.2704,582,1.8774
26.2747,582,1.8774
26.2790,528,1.7032
26.2833,523,1.6871
26.2876,567,1.8290
26.2919,566,1.8258
26.2963,511,1.6484
26.3006,449,1.4484
26.3048,434,1.4000
26.3091,481,1.5516
26.3135,507,1.6355
26.3178,478,1.5419
26.3220,433,1.3968
26.3263,445,1.4355
26.3306,485,1.5645
26.3349,481,1.5516
26.3392,437,1.4097
26.3435,416,1.3419
26.3478,446,1.4387
26.3521,455,1.4677
26.3564,423,1.3645
26.3607,390,1.2581
26.3650,402,1.2968
26.3693,453,1.4613
26.3736,469,1.5129
26.3779,433,1.3968
26.3822,388,1.2516
26.3865,404,1.3032
26.3909,465,1.5000
26.3952,533,1.7194
26.3995,611,1.9710
26.4038,740,2.3871
26.4081,900,2.9032
26.4124,971,3.1323
26.4167,879,2.8355
26.4210,712,2.2968
26.4252,589,1.9000
26.4295,552,1.7806
26.4338,533,1.7194
26.4381,499,1.6097
26.4424,490,1.5806
26.4467,511,1.6484
26.4510,538,1.7355
26.4554,528,1.7032
26.4597,499,1.6097
26.4640,504,1.6258
26.4683,551,1.7774
26.4725,575,1.8548
26.4768,541,1.7452
26.4811,513,1.6548
26.4855,550,1.7742
