time_s,adc_raw,voltage
0.0000,624,2.0129
0.0043,647,2.0871
0.0087,640,2.0645
0.0131,617,1.9903
0.0174,632,2.0387
0.0218,661,2.1323
0.0265,654,2.1097
0.0310,652,2.1032
0.0356,658,2.1226
0.0399,674,2.1742
0.0443,689,2.2226
0.0486,674,2.1742
0.0530,668,2.1548
0.0574,679,2.1903
0.0618,684,2.2065
0.0662,672,2.1677
0.0705,670,2.1613
0.0749,699,2.2548
0.0792,709,2.2871
0.0835,682,2.2000
0.0877,644,2.0774
0.0919,604,1.9484
0.0961,609,1.9645
0.1003,652,2.1032
0.1045,674,2.1742
0.1087,643,2.0742
0.1129,612,1.9742
0.1171,609,1.9645
0.1213,636,2.0516
0.1255,657,2.1194
0.1297,638,2.0581
0.1339,617,1.9903
0.1381,612,1.9742
0.1423,613,1.9774
0.1468,583,1.8806
0.1513,544,1.7548
0.1558,535,1.7258
0.1605,551,1.7774
0.1648,559,1.8032
0.1690,550,1.7742
0.1734,528,1.7032
0.1779,527,1.7000
0.1825,543,1.7516
0.1870,548,1.7677
0.1919,536,1.7290
0.1966,531,1.7129
0.2014,542,1.7484
0.2062,530,1.7097
0.2110,517,1.6677
0.2158,526,1.6968
0.2202,543,1.7516
0.2246,546,1.7613
0.2290,528,1.7032
0.2334,513,1.6548
0.2378,517,1.6677
0.2421,523,1.6871
0.2464,513,1.6548
0.2507,491,1.5839
0.2550,481,1.5516
0.2592,497,1.6032
0.2634,502,1.6194
0.2676,499,1.6097
0.2719,481,1.5516
0.2761,467,1.5065
0.2803,476,1.5355
0.2845,474,1.5290
0.2887,467,1.5065
0.2930,468,1.5097
0.2972,471,1.5194
0.3014,482,1.5548
0.3057,475,1.5323
0.3099,444,1.4323
0.3142,426,1.3742
0.3183,429,1.3839
0.3225,452,1.4581
0.3267,470,1.5161
0.3309,450,1.4516
0.3351,431,1.3903
0.3393,448,1.4452
0.3434,465,1.5000
0.3476,460,1.4839
0.3518,452,1.4581
0.3560,448,1.4452
0.3602,476,1.5355
0.3643,500,1.6129
0.3685,495,1.5968
0.3727,455,1.4677
0.3769,439,1.4161
0.3810,450,1.4516
0.3852,452,1.4581
0.3894,424,1.3677
0.3936,400,1.2903
0.3978,393,1.2677
0.4020,406,1.3097
0.4061,414,1.3355
0.4103,398,1.2839
0.4145,383,1.2355
0.4187,389,1.2548
0.4229,406,1.3097
0.4270,406,1.3097
0.4312,381,1.2290
0.4354,369,1.1903
0.4396,379,1.2226
0.4438,381,1.2290
0.4480,376,1.2129
0.4521,357,1.1516
0.4563,355,1.1452
0.4605,369,1.1903
0.4647,393,1.2677
0.4688,428,1.3806
0.4730,483,1.5581
0.4772,570,1.8387
0.4816,703,2.2677
0.4859,818,2.6387
0.4901,875,2.8226
0.4943,913,2.9452
0.4985,910,2.9355
0.5027,834,2.6903
0.5069,732,2.3613
0.5110,622,2.0065
0.5152,528,1.7032
0.5194,449,1.4484
0.5236,370,1.1935
0.5278,290,0.9355
0.5319,227,0.7323
0.5361,215,0.6935
0.5404,249,0.8032
0.5445,282,0.9097
0.5487,293,0.9452
0.5529,281,0.9065
0.5571,280,0.9032
0.5612,306,0.9871
0.5654,325,1.0484
0.5696,317,1.0226
0.5738,309,0.9968
0.5780,315,1.0161
0.5821,336,1.0839
0.5863,339,1.0935
0.5905,323,1.0419
0.5947,314,1.0129
0.5988,332,1.0710
0.6030,358,1.1548
0.6072,361,1.1645
0.6114,342,1.1032
0.6155,342,1.1032
0.6197,357,1.1516
0.6239,362,1.1677
0.6281,345,1.1129
0.6323,320,1.0323
0.6365,317,1.0226
0.6407,342,1.1032
0.6448,360,1.1613
0.6490,357,1.1516
0.6532,346,1.1161
0.6574,349,1.1258
0.6616,375,1.2097
0.6657,390,1.2581
0.6699,385,1.2419
0.6741,380,1.2258
0.6783,394,1.2710
0.6824,424,1.3677
0.6866,424,1.3677
0.6908,397,1.2806
0.6950,381,1.2290
0.6992,389,1.2548
0.7033,403,1.3000
0.7075,408,1.3161
0.7117,388,1.2516
0.7159,374,1.2065
0.7200,386,1.2452
0.7242,403,1.3000
0.7284,409,1.3194
0.7326,402,1.2968
0.7368,404,1.3032
0.7410,429,1.3839
0.7452,444,1.4323
0.7493,436,1.4065
0.7535,418,1.3484
0.7577,418,1.3484
0.7619,435,1.4032
0.7661,437,1.4097
0.7702,413,1.3323
0.7744,391,1.2613
0.7786,390,1.2581
0.7828,402,1.2968
0.7869,399,1.2871
0.7911,376,1.2129
0.7953,362,1.1677
0.7995,374,1.2065
0.8037,392,1.2645
0.8079,401,1.2935
0.8120,385,1.2419
0.8162,378,1.2194
0.8204,398,1.2839
0.8246,411,1.3258
0.8288,401,1.2935
0.8329,383,1.2355
0.8371,382,1.2323
0.8413,404,1.3032
0.8455,418,1.3484
0.8497,409,1.3194
0.8539,398,1.2839
0.8580,408,1.3161
0.8622,433,1.3968
0.8664,444,1.4323
0.8706,429,1.3839
0.8747,419,1.3516
0.8789,431,1.3903
0.8831,455,1.4677
0.8873,460,1.4839
0.8915,444,1.4323
0.8956,440,1.4194
0.8998,459,1.4806
0.9040,478,1.5419
0.9082,479,1.5452
0.9123,456,1.4710
0.9165,446,1.4387
0.9207,462,1.4903
0.9249,475,1.5323
0.9290,467,1.5065
0.9332,443,1.4290
0.9374,439,1.4161
0.9416,453,1.4613
0.9458,460,1.4839
0.9500,449,1.4484
0.9541,441,1.4226
0.9583,451,1.4548
0.9625,475,1.5323
0.9667,481,1.5516
0.9709,463,1.4935
0.9750,457,1.4742
0.9792,472,1.5226
0.9834,489,1.5774
0.9876,492,1.5871
0.9918,475,1.5323
0.9960,473,1.5258
1.0004,496,1.6000
1.0047,515,1.6613
1.0090,518,1.6710
1.0134,513,1.6548
1.0177,518,1.6710
1.0220,537,1.7323
1.0264,548,1.7677
1.0307,538,1.7355
1.0350,536,1.7290
1.0393,556,1.7935
1.0438,579,1.8677
1.0481,568,1.8323
1.0524,539,1.7387
1.0567,529,1.7065
1.0611,542,1.7484
1.0654,547,1.7645
1.0697,528,1.7032
1.0741,511,1.6484
1.0784,522,1.6839
1.0831,547,1.7645
1.0876,550,1.7742
1.0921,533,1.7194
1.0965,528,1.7032
1.1008,547,1.7645
1.1051,562,1.8129
1.1094,551,1.7774
1.1137,532,1.7161
1.1180,528,1.7032
1.1223,540,1.7419
1.1266,537,1.7323
1.1309,519,1.6742
1.1352,533,1.7194
1.1395,600,1.9355
1.1439,700,2.2581
1.1482,807,2.6032
1.1525,927,2.9903
1.1567,1000,3.2258
1.1610,1001,3.2290
1.1653,1003,3.2355
1.1696,1001,3.2290
1.1739,1002,3.2323
1.1782,999,3.2226
1.1825,917,2.9581
1.1868,742,2.3935
1.1911,585,1.8871
1.1954,505,1.6290
1.1997,502,1.6194
1.2040,528,1.7032
1.2083,532,1.7161
1.2126,520,1.6774
1.2169,525,1.6935
1.2212,547,1.7645
1.2255,555,1.7903
1.2298,539,1.7387
1.2341,522,1.6839
1.2383,530,1.7097
1.2426,552,1.7806
1.2469,558,1.8000
1.2513,543,1.7516
1.2555,536,1.7290
1.2598,551,1.7774
1.2641,569,1.8355
1.2684,568,1.8323
1.2727,553,1.7839
1.2770,553,1.7839
1.2813,573,1.8484
1.2856,582,1.8774
1.2899,572,1.8452
1.2942,562,1.8129
1.2986,568,1.8323
1.3029,591,1.9065
1.3072,596,1.9226
1.3115,580,1.8710
1.3159,574,1.8516
1.3202,594,1.9161
1.3245,615,1.9839
1.3288,612,1.9742
1.3332,597,1.9258
1.3376,599,1.9323
1.3419,625,2.0161
1.3462,634,2.0452
1.3506,621,2.0032
1.3549,615,1.9839
1.3592,633,2.0419
1.3635,671,2.1645
1.3679,707,2.2806
1.3722,706,2.2774
1.3766,703,2.2677
1.3813,724,2.3355
1.3858,733,2.3645
1.3902,722,2.3290
1.3949,703,2.2677
1.3994,724,2.3355
1.4038,743,2.3968
1.4081,744,2.4000
1.4123,718,2.3161
1.4166,711,2.2935
1.4209,726,2.3419
1.4251,732,2.3613
1.4294,715,2.3065
1.4336,687,2.2161
1.4379,676,2.1806
1.4422,684,2.2065
1.4465,678,2.1871
1.4507,650,2.0968
1.4550,624,2.0129
1.4593,618,1.9935
1.4636,623,2.0097
1.4679,615,1.9839
1.4721,590,1.9032
1.4764,580,1.8710
1.4807,592,1.9097
1.4849,601,1.9387
1.4892,592,1.9097
1.4935,579,1.8677
1.4978,593,1.9129
1.5021,616,1.9871
1.5064,606,1.9548
1.5107,572,1.8452
1.5150,562,1.8129
1.5193,580,1.8710
1.5236,593,1.9129
1.5279,588,1.8968
1.5322,565,1.8226
1.5365,562,1.8129
1.5408,586,1.8903
1.5451,608,1.9613
1.5494,605,1.9516
1.5538,593,1.9129
1.5581,599,1.9323
1.5624,619,1.9968
1.5667,620,2.0000
1.5710,610,1.9677
1.5753,605,1.9516
1.5797,604,1.9484
1.5839,605,1.9516
1.5882,592,1.9097
1.5925,561,1.8097
1.5968,549,1.7710
1.6012,569,1.8355
1.6055,583,1.8806
1.6098,573,1.8484
1.6141,560,1.8065
1.6186,570,1.8387
1.6230,594,1.9161
1.6273,599,1.9323
1.6316,576,1.8581
1.6359,568,1.8323
1.6403,588,1.8968
1.6446,607,1.9581
1.6489,603,1.9452
1.6532,580,1.8710
1.6574,577,1.8613
1.6618,604,1.9484
1.6661,634,2.0452
1.6704,642,2.0710
1.6746,632,2.0387
1.6789,635,2.0484
1.6833,642,2.0710
1.6876,634,2.0452
1.6919,610,1.9677
1.6968,609,1.9645
1.7011,634,2.0452
1.7054,648,2.0903
1.7097,638,2.0581
1.7140,614,1.9806
1.7182,608,1.9613
1.7225,625,2.0161
1.7268,621,2.0032
1.7311,592,1.9097
1.7354,571,1.8419
1.7396,584,1.8839
1.7439,608,1.9613
1.7482,606,1.9548
1.7525,584,1.8839
1.7567,571,1.8419
1.7610,579,1.8677
1.7653,589,1.9000
1.7696,579,1.8677
1.7739,557,1.7968
1.7781,553,1.7839
1.7830,571,1.8419
1.7873,574,1.8516
1.7915,571,1.8419
1.7958,611,1.9710
1.8001,714,2.3032
1.8044,846,2.7290
1.8087,992,3.2000
1.8130,1002,3.2323
1.8173,1004,3.2387
1.8215,1003,3.2355
1.8258,1003,3.2355
1.8301,1003,3.2355
1.8343,1000,3.2258
1.8390,989,3.1903
1.8433,809,2.6097
1.8476,623,2.0097
1.8519,528,1.7032
1.8562,516,1.6645
1.8611,547,1.7645
1.8654,573,1.8484
1.8696,565,1.8226
1.8739,543,1.7516
1.8782,542,1.7484
1.8825,564,1.8194
1.8868,572,1.8452
1.8910,556,1.7935
1.8952,545,1.7581
1.8995,556,1.7935
1.9038,579,1.8677
1.9081,587,1.8935
1.9125,569,1.8355
1.9167,562,1.8129
1.9210,575,1.8548
1.9253,579,1.8677
1.9295,573,1.8484
1.9339,566,1.8258
1.9381,574,1.8516
1.9423,589,1.9000
1.9472,593,1.9129
1.9515,581,1.8742
1.9558,580,1.8710
1.9601,606,1.9548
1.9643,634,2.0452
1.9686,633,2.0419
1.9729,606,1.9548
1.9772,605,1.9516
1.9816,631,2.0355
1.9860,644,2.0774
1.9904,632,2.0387
1.9946,621,2.0032
1.9989,625,2.0161
2.0032,653,2.1065
2.0075,664,2.1419
2.0118,649,2.0935
2.0161,637,2.0548
2.0203,649,2.0935
2.0250,665,2.1452
2.0293,669,2.1581
2.0335,659,2.1258
2.0378,671,2.1645
2.0421,688,2.2194
2.0464,691,2.2290
2.0507,668,2.1548
2.0550,648,2.0903
2.0592,656,2.1161
2.0635,685,2.2097
2.0677,694,2.2387
2.0720,675,2.1774
2.0763,658,2.1226
2.0806,661,2.1323
2.0848,668,2.1548
2.0891,648,2.0903
2.0934,625,2.0161
2.0977,608,1.9613
2.1020,603,1.9452
2.1067,591,1.9065
2.1110,590,1.9032
2.1153,595,1.9194
2.1197,577,1.8613
2.1239,563,1.8161
2.1282,549,1.7710
2.1325,573,1.8484
2.1367,588,1.8968
2.1410,566,1.8258
2.1452,536,1.7290
2.1495,524,1.6903
2.1539,551,1.7774
2.1582,559,1.8032
2.1625,546,1.7613
2.1668,536,1.7290
2.1711,545,1.7581
2.1754,566,1.8258
2.1797,567,1.8290
2.1840,550,1.7742
2.1882,540,1.7419
2.1926,568,1.8323
2.1970,592,1.9097
2.2013,582,1.8774
2.2059,547,1.7645
2.2103,555,1.7903
2.2147,583,1.8806
2.2191,586,1.8903
2.2235,556,1.7935
2.2301,539,1.7387
2.2346,572,1.8452
2.2391,584,1.8839
2.2436,563,1.8161
2.2481,544,1.7548
2.2533,567,1.8290
2.2577,584,1.8839
2.2621,564,1.8194
2.2664,540,1.7419
2.2707,538,1.7355
2.2750,560,1.8065
2.2793,562,1.8129
2.2836,538,1.7355
2.2879,521,1.6806
2.2922,541,1.7452
2.2965,564,1.8194
2.3008,554,1.7871
2.3050,527,1.7000
2.3094,517,1.6677
2.3137,542,1.7484
2.3180,554,1.7871
2.3224,528,1.7032
2.3267,506,1.6323
2.3309,514,1.6581
2.3351,548,1.7677
2.3395,559,1.8032
2.3437,537,1.7323
2.3479,524,1.6903
2.3521,543,1.7516
2.3563,575,1.8548
2.3605,585,1.8871
2.3646,559,1.8032
2.3688,540,1.7419
2.3730,564,1.8194
2.3772,591,1.9065
2.3813,588,1.8968
2.3856,567,1.8290
2.3899,559,1.8032
2.3945,586,1.8903
2.3989,597,1.9258
2.4033,565,1.8226
2.4078,530,1.7097
2.4123,535,1.7258
2.4168,546,1.7613
2.4213,532,1.7161
2.4257,501,1.6161
2.4301,496,1.6000
2.4344,523,1.6871
2.4388,538,1.7355
2.4432,519,1.6742
2.4474,500,1.6129
2.4516,502,1.6194
2.4559,518,1.6710
2.4608,515,1.6613
2.4653,480,1.5484
2.4698,466,1.5032
2.4743,489,1.5774
2.4788,509,1.6419
2.4833,527,1.7000
2.4878,582,1.8774
2.4927,701,2.2613
2.4970,858,2.7677
2.5013,999,3.2226
2.5056,1002,3.2323
2.5098,1003,3.2355
2.5140,1000,3.2258
2.5182,1003,3.2355
2.5224,995,3.2097
2.5266,842,2.7161
2.5308,637,2.0548
2.5349,520,1.6774
2.5391,475,1.5323
2.5433,448,1.4452
2.5475,439,1.4161
2.5517,456,1.4710
2.5559,481,1.5516
2.5601,485,1.5645
2.5644,457,1.4742
2.5686,438,1.4129
2.5728,444,1.4323
2.5769,462,1.4903
2.5811,465,1.5000
2.5853,443,1.4290
2.5895,434,1.4000
2.5938,455,1.4677
2.5980,469,1.5129
2.6022,458,1.4774
2.6075,439,1.4161
2.6123,460,1.4839
2.6169,484,1.5613
2.6215,480,1.5484
2.6263,456,1.4710
2.6307,452,1.4581
2.6350,477,1.5387
2.6393,494,1.5935
2.6436,481,1.5516
2.6479,469,1.5129
2.6522,486,1.5677
2.6565,514,1.6581
2.6608,513,1.6548
2.6651,481,1.5516
2.6694,460,1.4839
2.6736,481,1.5516
2.6778,510,1.6452
2.6820,511,1.6484
2.6862,497,1.6032
2.6904,494,1.5935
2.6946,519,1.6742
2.6989,543,1.7516
2.7031,531,1.7129
2.7073,515,1.6613
2.7120,523,1.6871
2.7163,545,1.7581
2.7205,557,1.7968
2.7247,539,1.7387
2.7289,529,1.7065
2.7331,550,1.7742
2.7373,578,1.8645
2.7415,580,1.8710
2.7458,559,1.8032
2.7500,549,1.7710
2.7544,570,1.8387
2.7587,590,1.9032
2.7630,581,1.8742
2.7672,559,1.8032
2.7715,556,1.7935
2.7758,569,1.8355
2.7801,566,1.8258
2.7845,532,1.7161
2.7892,507,1.6355
2.7940,514,1.6581
2.7985,522,1.6839
2.8030,503,1.6226
2.8075,480,1.5484
2.8120,470,1.5161
2.8164,467,1.5065
2.8207,452,1.4581
2.8249,424,1.3677
2.8291,413,1.3323
2.8332,432,1.3935
2.8374,453,1.4613
2.8416,452,1.4581
2.8458,435,1.4032
2.8500,424,1.3677
2.8542,438,1.4129
2.8584,453,1.4613
2.8626,450,1.4516
2.8667,437,1.4097
2.8709,436,1.4065
2.8752,460,1.4839
2.8794,476,1.5355
2.8835,458,1.4774
2.8877,436,1.4065
2.8919,440,1.4194
2.8963,478,1.5419
2.9010,494,1.5935
2.9056,473,1.5258
2.9101,455,1.4677
2.9148,470,1.5161
2.9194,486,1.5677
2.9241,475,1.5323
2.9288,454,1.4645
2.9334,465,1.5000
2.9380,485,1.5645
2.9426,482,1.5548
2.9472,468,1.5097
2.9521,463,1.4935
2.9566,476,1.5355
2.9610,480,1.5484
2.9655,466,1.5032
2.9699,459,1.4806
2.9742,468,1.5097
2.9785,474,1.5290
2.9829,463,1.4935
2.9875,451,1.4548
2.9919,454,1.4645
2.9963,476,1.5355
3.0007,487,1.5710
3.0052,461,1.4871
3.0097,447,1.4419
3.0141,462,1.4903
3.0185,478,1.5419
3.0229,470,1.5161
3.0274,448,1.4452
3.0319,442,1.4258
3.0363,462,1.4903
3.0406,474,1.5290
3.0452,459,1.4806
3.0496,454,1.4645
3.0539,476,1.5355
3.0581,499,1.6097
3.0623,502,1.6194
3.0665,483,1.5581
3.0707,472,1.5226
3.0749,492,1.5871
3.0791,513,1.6548
3.0833,513,1.6548
3.0875,504,1.6258
3.0917,499,1.6097
3.0959,511,1.6484
3.1001,518,1.6710
3.1043,492,1.5871
3.1085,461,1.4871
3.1127,451,1.4548
3.1169,461,1.4871
3.1211,471,1.5194
3.1253,459,1.4806
3.1295,443,1.4290
3.1337,450,1.4516
3.1379,467,1.5065
3.1421,472,1.5226
3.1463,457,1.4742
3.1505,443,1.4290
3.1547,455,1.4677
3.1589,470,1.5161
3.1631,461,1.4871
3.1675,436,1.4065
3.1718,417,1.3452
3.1762,427,1.3774
3.1806,452,1.4581
3.1850,485,1.5645
3.1894,551,1.7774
3.1938,664,2.1419
3.1980,825,2.6613
3.2023,980,3.1613
3.2066,1001,3.2290
3.2109,1001,3.2290
3.2152,1002,3.2323
3.2196,996,3.2129
3.2239,872,2.8129
3.2282,672,2.1677
3.2325,521,1.6806
3.2369,446,1.4387
3.2412,428,1.3806
3.2455,413,1.3323
3.2498,398,1.2839
3.2541,411,1.3258
3.2584,428,1.3806
3.2627,430,1.3871
3.2670,414,1.3355
3.2714,406,1.3097
3.2756,421,1.3581
3.2799,441,1.4226
3.2842,435,1.4032
3.2886,421,1.3581
3.2929,420,1.3548
3.2972,437,1.4097
3.3015,450,1.4516
3.3058,438,1.4129
3.3101,428,1.3806
3.3144,439,1.4161
3.3187,455,1.4677
3.3231,461,1.4871
3.3276,447,1.4419
3.3321,439,1.4161
3.3368,453,1.4613
3.3413,462,1.4903
3.3459,439,1.4161
3.3505,423,1.3645
3.3550,443,1.4290
3.3595,465,1.5000
3.3639,462,1.4903
3.3682,450,1.4516
3.3724,447,1.4419
3.3766,464,1.4968
3.3808,482,1.5548
3.3850,478,1.5419
3.3892,469,1.5129
3.3934,478,1.5419
3.3976,503,1.6226
3.4018,517,1.6677
3.4060,502,1.6194
3.4102,487,1.5710
3.4144,502,1.6194
3.4186,523,1.6871
3.4228,525,1.6935
3.4270,511,1.6484
3.4312,502,1.6194
3.4353,521,1.6806
3.4395,544,1.7548
3.4438,543,1.7516
3.4480,529,1.7065
3.4522,524,1.6903
3.4564,542,1.7484
3.4606,557,1.7968
3.4648,548,1.7677
3.4690,531,1.7129
3.4733,532,1.7161
3.4775,544,1.7548
3.4818,546,1.7613
3.4861,521,1.6806
3.4904,493,1.5903
3.4947,494,1.5935
3.4990,505,1.6290
3.5033,495,1.5968
3.5075,465,1.5000
3.5121,445,1.4355
3.5164,448,1.4452
3.5208,459,1.4806
3.5252,442,1.4258
3.5302,423,1.3645
3.5346,435,1.4032
3.5391,455,1.4677
3.5435,448,1.4452
3.5479,432,1.3935
3.5525,431,1.3903
3.5574,454,1.4645
3.5618,464,1.4968
3.5661,451,1.4548
3.5703,438,1.4129
3.5745,451,1.4548
3.5787,468,1.5097
3.5829,470,1.5161
3.5871,455,1.4677
3.5913,448,1.4452
3.5955,468,1.5097
3.5997,491,1.5839
3.6039,490,1.5806
3.6081,468,1.5097
3.6123,443,1.4290
3.6165,443,1.4290
3.6206,449,1.4484
3.6248,438,1.4129
3.6290,430,1.3871
3.6332,431,1.3903
3.6373,449,1.4484
3.6415,463,1.4935
3.6457,449,1.4484
3.6499,431,1.3903
3.6540,438,1.4129
3.6583,453,1.4613
3.6624,457,1.4742
3.6666,442,1.4258
3.6708,432,1.3935
3.6750,446,1.4387
3.6793,469,1.5129
3.6839,468,1.5097
3.6884,454,1.4645
3.6928,453,1.4613
3.6973,476,1.5355
3.7018,498,1.6065
3.7067,485,1.5645
3.7110,458,1.4774
3.7154,447,1.4419
3.7197,451,1.4548
3.7240,440,1.4194
3.7283,424,1.3677
3.7326,421,1.3581
3.7368,440,1.4194
3.7410,460,1.4839
3.7452,453,1.4613
3.7494,441,1.4226
3.7535,443,1.4290
3.7577,463,1.4935
3.7619,479,1.5452
3.7661,473,1.5258
3.7703,472,1.5226
3.7745,488,1.5742
3.7787,504,1.6258
3.7830,507,1.6355
3.7872,495,1.5968
3.7914,493,1.5903
3.7957,510,1.6452
3.7999,527,1.7000
3.8041,512,1.6516
3.8083,483,1.5581
3.8126,473,1.5258
3.8168,489,1.5774
3.8210,492,1.5871
3.8253,465,1.5000
3.8295,439,1.4161
3.8338,438,1.4129
3.8381,457,1.4742
3.8425,470,1.5161
3.8469,459,1.4806
3.8512,446,1.4387
3.8555,458,1.4774
3.8598,475,1.5323
3.8641,469,1.5129
3.8685,456,1.4710
3.8728,448,1.4452
3.8771,451,1.4548
3.8814,448,1.4452
3.8856,429,1.3839
3.8903,420,1.3548
3.8945,473,1.5258
3.8988,570,1.8387
3.9030,684,2.2065
3.9073,811,2.6161
3.9116,940,3.0323
3.9158,999,3.2226
3.9200,1000,3.2258
3.9242,1001,3.2290
3.9285,957,3.0871
3.9327,785,2.5323
3.9369,634,2.0452
3.9412,519,1.6742
3.9454,412,1.3290
3.9497,358,1.1548
3.9539,364,1.1742
3.9581,396,1.2774
3.9623,414,1.3355
3.9666,400,1.2903
3.9708,385,1.2419
3.9751,391,1.2613
3.9793,400,1.2903
3.9835,407,1.3129
3.9878,393,1.2677
3.9921,391,1.2613
3.9964,407,1.3129
4.0006,417,1.3452
4.0049,410,1.3226
4.0091,393,1.2677
4.0133,393,1.2677
4.0176,412,1.3290
4.0218,427,1.3774
4.0260,413,1.3323
4.0301,403,1.3000
4.0343,418,1.3484
4.0385,442,1.4258
4.0427,448,1.4452
4.0469,430,1.3871
4.0510,413,1.3323
4.0552,424,1.3677
4.0594,440,1.4194
4.0636,445,1.4355
4.0678,437,1.4097
4.0719,438,1.4129
4.0761,460,1.4839
4.0803,481,1.5516
4.0845,478,1.5419
4.0887,462,1.4903
4.0928,458,1.4774
4.0970,479,1.5452
4.1012,499,1.6097
4.1054,496,1.6000
4.1096,486,1.5677
4.1138,491,1.5839
4.1179,510,1.6452
4.1221,525,1.6935
4.1263,518,1.6710
4.1305,511,1.6484
4.1347,525,1.6935
4.1389,547,1.7645
4.1430,558,1.8000
4.1472,549,1.7710
4.1514,541,1.7452
4.1556,554,1.7871
4.1597,571,1.8419
4.1639,568,1.8323
4.1681,559,1.8032
4.1723,555,1.7903
4.1764,569,1.8355
4.1806,582,1.8774
4.1848,568,1.8323
4.1890,548,1.7677
4.1932,532,1.7161
4.1973,532,1.7161
4.2015,531,1.7129
4.2057,509,1.6419
4.2099,489,1.5774
4.2141,485,1.5645
4.2182,491,1.5839
4.2224,491,1.5839
4.2266,468,1.5097
4.2308,455,1.4677
4.2350,467,1.5065
4.2391,483,1.5581
4.2433,483,1.5581
4.2475,463,1.4935
4.2517,448,1.4452
4.2559,466,1.5032
4.2600,491,1.5839
4.2642,492,1.5871
4.2684,473,1.5258
4.2726,458,1.4774
4.2767,471,1.5194
4.2809,489,1.5774
4.2851,485,1.5645
4.2893,470,1.5161
4.2935,466,1.5032
4.2976,476,1.5355
4.3018,487,1.5710
4.3060,472,1.5226
4.3102,457,1.4742
4.3144,462,1.4903
4.3186,483,1.5581
4.3229,498,1.6065
4.3272,485,1.5645
4.3314,472,1.5226
4.3357,483,1.5581
4.3399,498,1.6065
4.3442,493,1.5903
4.3485,476,1.5355
4.3528,472,1.5226
4.3570,485,1.5645
4.3612,494,1.5935
4.3654,483,1.5581
4.3696,465,1.5000
4.3738,465,1.5000
4.3780,478,1.5419
4.3822,489,1.5774
4.3864,474,1.5290
4.3905,459,1.4806
4.3947,467,1.5065
4.3989,485,1.5645
4.4031,491,1.5839
4.4073,474,1.5290
4.4114,461,1.4871
4.4156,470,1.5161
4.4201,486,1.5677
4.4244,488,1.5742
4.4288,477,1.5387
4.4331,473,1.5258
4.4373,488,1.5742
4.4415,505,1.6290
4.4460,492,1.5871
4.4504,476,1.5355
4.4548,481,1.5516
4.4591,497,1.6032
4.4634,501,1.6161
4.4677,483,1.5581
4.4720,470,1.5161
4.4764,499,1.6097
4.4806,529,1.7065
4.4849,526,1.6968
4.4892,505,1.6290
4.4934,501,1.6161
4.4977,522,1.6839
4.5020,540,1.7419
4.5062,536,1.7290
4.5105,526,1.6968
4.5147,528,1.7032
4.5190,540,1.7419
4.5233,532,1.7161
4.5275,504,1.6258
4.5318,485,1.5645
4.5361,504,1.6258
4.5404,521,1.6806
4.5447,508,1.6387
4.5489,485,1.5645
4.5532,478,1.5419
4.5575,495,1.5968
4.5617,507,1.6355
4.5660,489,1.5774
4.5703,469,1.5129
4.5745,469,1.5129
4.5788,484,1.5613
4.5831,486,1.5677
4.5873,463,1.4935
4.5916,441,1.4226
4.5959,453,1.4613
4.6001,496,1.6000
4.6044,555,1.7903
4.6087,631,2.0355
4.6129,752,2.4258
4.6172,925,2.9839
4.6215,999,3.2226
4.6257,1003,3.2355
4.6300,1002,3.2323
4.6342,1000,3.2258
4.6385,989,3.1903
4.6429,834,2.6903
4.6471,649,2.0935
4.6515,518,1.6710
4.6558,464,1.4968
4.6602,463,1.4935
4.6645,460,1.4839
4.6688,447,1.4419
4.6731,450,1.4516
4.6774,472,1.5226
4.6818,479,1.5452
4.6861,459,1.4806
4.6905,439,1.4161
4.6948,446,1.4387
4.6991,473,1.5258
4.7034,484,1.5613
4.7078,466,1.5032
4.7121,450,1.4516
4.7164,463,1.4935
4.7208,482,1.5548
4.7251,481,1.5516
4.7294,468,1.5097
4.7338,467,1.5065
4.7381,487,1.5710
4.7425,498,1.6065
4.7469,480,1.5484
4.7512,466,1.5032
4.7555,480,1.5484
4.7598,504,1.6258
4.7641,513,1.6548
4.7684,501,1.6161
4.7727,490,1.5806
4.7770,506,1.6323
4.7813,522,1.6839
4.7856,516,1.6645
4.7899,506,1.6323
4.7942,512,1.6516
4.7985,534,1.7226
4.8028,544,1.7548
4.8070,531,1.7129
4.8113,519,1.6742
4.8156,536,1.7290
4.8199,560,1.8065
4.8242,564,1.8194
4.8286,553,1.7839
4.8329,552,1.7806
4.8372,575,1.8548
4.8415,591,1.9065
4.8458,583,1.8806
4.8501,568,1.8323
4.8544,568,1.8323
4.8587,591,1.9065
4.8630,605,1.9516
4.8674,586,1.8903
4.8717,574,1.8516
4.8760,595,1.9194
4.8804,609,1.9645
4.8847,593,1.9129
4.8890,571,1.8419
4.8934,570,1.8387
4.8977,586,1.8903
4.9020,590,1.9032
4.9063,559,1.8032
4.9107,531,1.7129
4.9150,527,1.7000
4.9193,537,1.7323
4.9236,536,1.7290
4.9280,518,1.6710
4.9323,500,1.6129
4.9366,512,1.6516
4.9410,522,1.6839
4.9453,502,1.6194
4.9498,478,1.5419
4.9541,475,1.5323
4.9584,499,1.6097
4.9627,515,1.6613
4.9670,498,1.6065
4.9713,474,1.5290
4.9755,482,1.5548
4.9798,502,1.6194
4.9841,507,1.6355
4.9884,491,1.5839
4.9927,478,1.5419
4.9970,493,1.5903
5.0013,507,1.6355
5.0056,496,1.6000
5.0103,481,1.5516
5.0149,497,1.6032
5.0195,517,1.6677
5.0241,513,1.6548
5.0287,487,1.5710
5.0332,477,1.5387
5.0376,495,1.5968
5.0419,508,1.6387
5.0462,493,1.5903
5.0507,475,1.5323
5.0549,480,1.5484
5.0592,498,1.6065
5.0635,505,1.6290
5.0677,491,1.5839
5.0720,479,1.5452
5.0763,489,1.5774
5.0805,503,1.6226
5.0848,494,1.5935
5.0891,473,1.5258
5.0934,466,1.5032
5.0976,487,1.5710
5.1019,506,1.6323
5.1062,500,1.6129
5.1104,484,1.5613
5.1147,481,1.5516
5.1190,490,1.5806
5.1233,493,1.5903
5.1275,478,1.5419
5.1318,466,1.5032
5.1361,480,1.5484
5.1403,498,1.6065
5.1446,495,1.5968
5.1488,474,1.5290
5.1531,465,1.5000
5.1575,486,1.5677
5.1618,504,1.6258
5.1661,495,1.5968
5.1705,482,1.5548
5.1748,490,1.5806
5.1791,518,1.6710
5.1834,531,1.7129
5.1878,516,1.6645
5.1921,500,1.6129
5.1964,515,1.6613
5.2008,541,1.7452
5.2051,548,1.7677
5.2094,534,1.7226
5.2139,525,1.6935
5.2183,531,1.7129
5.2226,533,1.7194
5.2269,512,1.6516
5.2312,487,1.5710
5.2356,486,1.5677
5.2399,502,1.6194
5.2442,505,1.6290
5.2486,487,1.5710
5.2530,476,1.5355
5.2573,492,1.5871
5.2616,505,1.6290
5.2659,500,1.6129
5.2702,488,1.5742
5.2746,488,1.5742
5.2790,495,1.5968
5.2834,493,1.5903
5.2877,467,1.5065
5.2925,440,1.4194
5.2969,456,1.4710
5.3017,512,1.6516
5.3062,573,1.8484
5.3108,659,2.1258
5.3154,807,2.6032
5.3199,967,3.1194
5.3245,1001,3.2290
5.3290,1000,3.2258
5.3336,983,3.1710
5.3381,979,3.1581
5.3425,842,2.7161
5.3468,687,2.2161
5.3512,574,1.8516
5.3556,501,1.6161
5.3599,462,1.4903
5.3642,444,1.4323
5.3684,428,1.3806
5.3726,418,1.3484
5.3768,440,1.4194
5.3810,467,1.5065
5.3852,475,1.5323
5.3894,463,1.4935
5.3936,456,1.4710
5.3978,468,1.5097
5.4020,478,1.5419
5.4062,464,1.4968
5.4104,447,1.4419
5.4187,478,1.5419
5.4230,497,1.6032
5.4273,484,1.5613
5.4315,465,1.5000
5.4357,468,1.5097
5.4399,482,1.5548
5.4441,491,1.5839
5.4483,484,1.5613
5.4544,491,1.5839
5.4590,512,1.6516
5.4634,519,1.6742
5.4677,499,1.6097
5.4720,480,1.5484
5.4764,493,1.5903
5.4808,521,1.6806
5.4854,531,1.7129
5.4899,520,1.6774
5.4944,512,1.6516
5.4988,525,1.6935
5.5033,540,1.7419
5.5077,534,1.7226
5.5121,525,1.6935
5.5163,538,1.7355
5.5206,563,1.8161
5.5248,570,1.8387
5.5291,551,1.7774
5.5333,531,1.7129
5.5375,544,1.7548
5.5420,567,1.8290
5.5463,559,1.8032
5.5505,546,1.7613
5.5551,551,1.7774
5.5596,581,1.8742
5.5639,601,1.9387
5.5681,588,1.8968
5.5723,573,1.8484
5.5766,582,1.8774
5.5808,595,1.9194
5.5850,598,1.9290
5.5892,585,1.8871
5.5934,576,1.8581
5.5977,585,1.8871
5.6019,583,1.8806
5.6061,558,1.8000
5.6104,526,1.6968
5.6146,512,1.6516
5.6188,524,1.6903
5.6232,537,1.7323
5.6275,519,1.6742
5.6318,501,1.6161
5.6361,505,1.6290
5.6404,514,1.6581
5.6446,511,1.6484
5.6489,491,1.5839
5.6532,477,1.5387
5.6575,493,1.5903
5.6618,511,1.6484
5.6661,510,1.6452
5.6703,491,1.5839
5.6746,477,1.5387
5.6787,486,1.5677
5.6830,499,1.6097
5.6872,491,1.5839
5.6914,477,1.5387
5.6956,480,1.5484
5.6998,495,1.5968
5.7040,506,1.6323
5.7082,497,1.6032
5.7125,486,1.5677
5.7166,496,1.6000
5.7209,515,1.6613
5.7250,520,1.6774
5.7293,507,1.6355
5.7335,487,1.5710
5.7377,486,1.5677
5.7419,497,1.6032
5.7461,492,1.5871
5.7503,481,1.5516
5.7545,479,1.5452
5.7587,494,1.5935
5.7629,509,1.6419
5.7671,494,1.5935
5.7713,471,1.5194
5.7755,467,1.5065
5.7797,481,1.5516
5.7839,493,1.5903
5.7881,481,1.5516
5.7923,470,1.5161
5.7966,484,1.5613
5.8008,502,1.6194
5.8050,498,1.6065
5.8092,476,1.5355
5.8134,462,1.4903
5.8176,473,1.5258
5.8218,487,1.5710
5.8260,480,1.5484
5.8302,463,1.4935
5.8344,457,1.4742
5.8386,474,1.5290
5.8428,490,1.5806
5.8470,482,1.5548
5.8512,468,1.5097
5.8554,484,1.5613
5.8597,510,1.6452
5.8639,513,1.6548
5.8680,495,1.5968
5.8723,473,1.5258
5.8765,476,1.5355
5.8807,494,1.5935
5.8849,502,1.6194
5.8891,492,1.5871
5.8933,484,1.5613
5.8975,505,1.6290
5.9017,531,1.7129
5.9058,537,1.7323
5.9101,525,1.6935
5.9143,512,1.6516
5.9184,520,1.6774
5.9226,527,1.7000
5.9268,504,1.6258
5.9311,478,1.5419
5.9353,471,1.5194
5.9395,485,1.5645
5.9437,491,1.5839
5.9479,476,1.5355
5.9521,464,1.4968
5.9563,479,1.5452
5.9605,506,1.6323
5.9648,503,1.6226
5.9690,464,1.4968
5.9732,440,1.4194
5.9774,447,1.4419
5.9816,461,1.4871
5.9858,455,1.4677
5.9899,430,1.3871
5.9941,419,1.3516
5.9983,462,1.4903
6.0025,543,1.7516
6.0068,627,2.0226
6.0110,731,2.3581
6.0152,879,2.8355
6.0194,996,3.2129
6.0236,1002,3.2323
6.0278,1003,3.2355
6.0320,1001,3.2290
6.0362,995,3.2097
6.0403,903,2.9129
6.0445,743,2.3968
6.0487,589,1.9000
6.0529,472,1.5226
6.0571,428,1.3806
6.0613,430,1.3871
6.0655,438,1.4129
6.0698,432,1.3935
6.0740,430,1.3871
6.0783,448,1.4452
6.0825,467,1.5065
6.0867,459,1.4806
6.0910,442,1.4258
6.0952,439,1.4161
6.0995,461,1.4871
6.1037,480,1.5484
6.1080,468,1.5097
6.1122,450,1.4516
6.1165,446,1.4387
6.1207,462,1.4903
6.1250,471,1.5194
6.1292,462,1.4903
6.1335,453,1.4613
6.1377,471,1.5194
6.1420,490,1.5806
6.1462,485,1.5645
6.1504,474,1.5290
6.1547,471,1.5194
6.1589,500,1.6129
6.1633,538,1.7355
6.1675,528,1.7032
6.1719,487,1.5710
6.1762,476,1.5355
6.1805,495,1.5968
6.1849,506,1.6323
6.1892,495,1.5968
6.1935,492,1.5871
6.1978,516,1.6645
6.2022,533,1.7194
6.2065,536,1.7290
6.2109,522,1.6839
6.2153,524,1.6903
6.2196,549,1.7710
6.2240,576,1.8581
6.2283,574,1.8516
6.2327,559,1.8032
6.2370,563,1.8161
6.2414,574,1.8516
6.2457,575,1.8548
6.2500,563,1.8161
6.2544,555,1.7903
6.2587,575,1.8548
6.2630,600,1.9355
6.2675,604,1.9484
6.2718,597,1.9258
6.2761,594,1.9161
6.2804,601,1.9387
6.2847,597,1.9258
6.2890,569,1.8355
6.2933,557,1.7968
6.2976,574,1.8516
6.3018,585,1.8871
6.3062,565,1.8226
6.3104,534,1.7226
6.3147,518,1.6710
6.3190,526,1.6968
6.3233,532,1.7161
6.3276,511,1.6484
6.3319,484,1.5613
6.3362,485,1.5645
6.3405,508,1.6387
6.3448,518,1.6710
6.3491,496,1.6000
6.3534,477,1.5387
6.3577,490,1.5806
6.3620,508,1.6387
6.3664,505,1.6290
6.3707,489,1.5774
6.3750,481,1.5516
6.3794,500,1.6129
6.3837,512,1.6516
6.3881,498,1.6065
6.3924,483,1.5581
6.3967,490,1.5806
6.4011,506,1.6323
6.4054,509,1.6419
6.4097,490,1.5806
6.4141,479,1.5452
6.4184,495,1.5968
6.4228,515,1.6613
6.4273,504,1.6258
6.4319,485,1.5645
6.4405,506,1.6323
6.4450,511,1.6484
6.4497,489,1.5774
6.4543,472,1.5226
6.4588,491,1.5839
6.4633,508,1.6387
6.4678,495,1.5968
6.4722,478,1.5419
6.4766,481,1.5516
6.4809,497,1.6032
6.4851,502,1.6194
6.4893,482,1.5548
6.4936,464,1.4968
6.4978,480,1.5484
6.5022,502,1.6194
6.5067,497,1.6032
6.5112,478,1.5419
6.5157,472,1.5226
6.5201,490,1.5806
6.5244,502,1.6194
6.5290,491,1.5839
6.5333,475,1.5323
6.5377,486,1.5677
6.5420,506,1.6323
6.5463,513,1.6548
6.5506,503,1.6226
6.5548,491,1.5839
6.5590,510,1.6452
6.5633,529,1.7065
6.5675,514,1.6581
6.5717,497,1.6032
6.5759,507,1.6355
6.5801,535,1.7258
6.5843,553,1.7839
6.5885,543,1.7516
6.5927,523,1.6871
6.5969,529,1.7065
6.6011,548,1.7677
6.6053,559,1.8032
6.6095,535,1.7258
6.6138,494,1.5935
6.6180,483,1.5581
6.6222,481,1.5516
6.6264,466,1.5032
6.6307,457,1.4742
6.6350,457,1.4742
6.6394,479,1.5452
6.6437,497,1.6032
6.6480,484,1.5613
6.6523,469,1.5129
6.6566,473,1.5258
6.6609,493,1.5903
6.6652,491,1.5839
6.6695,460,1.4839
6.6737,432,1.3935
6.6779,445,1.4355
6.6821,493,1.5903
6.6863,556,1.7935
6.6904,632,2.0387
6.6946,753,2.4290
6.6988,923,2.9774
6.7029,999,3.2226
6.7071,1001,3.2290
6.7112,1002,3.2323
6.7154,1001,3.2290
6.7196,966,3.1161
6.7237,808,2.6065
6.7279,618,1.9935
6.7321,471,1.5194
6.7363,409,1.3194
6.7404,407,1.3129
6.7446,409,1.3194
6.7487,392,1.2645
6.7529,391,1.2613
6.7571,414,1.3355
6.7613,428,1.3806
6.7654,418,1.3484
6.7696,395,1.2742
6.7738,395,1.2742
6.7779,422,1.3613
6.7821,446,1.4387
6.7863,441,1.4226
6.7905,430,1.3871
6.7946,435,1.4032
6.7988,461,1.4871
6.8030,474,1.5290
6.8071,464,1.4968
6.8113,454,1.4645
6.8154,458,1.4774
6.8196,475,1.5323
6.8238,475,1.5323
6.8280,448,1.4452
6.8321,428,1.3806
6.8363,442,1.4258
6.8405,456,1.4710
6.8446,449,1.4484
6.8488,430,1.3871
6.8530,431,1.3903
6.8571,458,1.4774
6.8613,479,1.5452
6.8655,471,1.5194
6.8696,450,1.4516
6.8738,451,1.4548
6.8780,480,1.5484
6.8821,505,1.6290
6.8864,504,1.6258
6.8905,496,1.6000
6.8947,501,1.6161
6.8989,533,1.7194
6.9030,548,1.7677
6.9072,537,1.7323
6.9114,527,1.7000
6.9155,537,1.7323
6.9197,560,1.8065
6.9239,577,1.8613
6.9280,561,1.8097
6.9322,547,1.7645
6.9364,553,1.7839
6.9405,564,1.8194
6.9447,564,1.8194
6.9489,536,1.7290
6.9530,513,1.6548
6.9572,530,1.7097
6.9614,550,1.7742
6.9655,547,1.7645
6.9697,515,1.6613
6.9739,495,1.5968
6.9780,509,1.6419
6.9822,522,1.6839
6.9864,503,1.6226
6.9906,468,1.5097
6.9947,443,1.4290
6.9989,452,1.4581
7.0031,455,1.4677
7.0072,440,1.4194
7.0114,427,1.3774
7.0156,420,1.3548
7.0197,424,1.3677
7.0239,425,1.3710
7.0281,420,1.3548
7.0322,415,1.3387
7.0364,412,1.3290
7.0406,422,1.3613
7.0448,432,1.3935
7.0491,441,1.4226
7.0533,439,1.4161
7.0575,444,1.4323
7.0617,453,1.4613
7.0659,457,1.4742
7.0701,456,1.4710
7.0743,440,1.4194
7.0784,439,1.4161
7.0826,443,1.4290
7.0868,446,1.4387
7.0910,450,1.4516
7.0952,449,1.4484
7.0993,460,1.4839
7.1035,469,1.5129
7.1077,471,1.5194
7.1119,468,1.5097
7.1161,460,1.4839
7.1202,455,1.4677
7.1245,457,1.4742
7.1286,457,1.4742
7.1328,451,1.4548
7.1370,441,1.4226
7.1412,437,1.4097
7.1454,444,1.4323
7.1495,458,1.4774
7.1537,461,1.4871
7.1579,455,1.4677
7.1621,449,1.4484
7.1663,459,1.4806
7.1704,480,1.5484
7.1747,489,1.5774
7.1790,475,1.5323
7.1834,458,1.4774
7.1878,462,1.4903
7.1924,470,1.5161
7.1969,468,1.5097
7.2014,467,1.5065
7.2057,474,1.5290
7.2109,488,1.5742
7.2153,483,1.5581
7.2197,477,1.5387
7.2240,476,1.5355
7.2282,492,1.5871
7.2324,503,1.6226
7.2366,501,1.6161
7.2408,495,1.5968
7.2449,506,1.6323
7.2491,526,1.6968
7.2532,530,1.7097
7.2574,524,1.6903
7.2616,521,1.6806
7.2657,530,1.7097
7.2699,555,1.7903
7.2741,561,1.8097
7.2783,551,1.7774
7.2826,546,1.7613
7.2868,549,1.7710
7.2911,548,1.7677
7.2955,530,1.7097
7.2998,506,1.6323
7.3041,498,1.6065
7.3084,517,1.6677
7.3127,532,1.7161
7.3171,530,1.7097
7.3216,524,1.6903
7.3263,519,1.6742
7.3308,520,1.6774
7.3353,520,1.6774
7.3397,528,1.7032
7.3442,537,1.7323
7.3488,529,1.7065
7.3532,514,1.6581
7.3577,516,1.6645
7.3622,543,1.7516
7.3666,589,1.9000
7.3710,651,2.1000
7.3754,743,2.3968
7.3798,910,2.9355
7.3841,1003,3.2355
7.3883,1003,3.2355
7.3925,1003,3.2355
7.3976,1003,3.2355
7.4019,1002,3.2323
7.4062,973,3.1387
7.4104,796,2.5677
7.4146,615,1.9839
7.4188,505,1.6290
7.4230,461,1.4871
7.4271,462,1.4903
7.4313,476,1.5355
7.4355,481,1.5516
7.4397,483,1.5581
7.4439,482,1.5548
7.4480,484,1.5613
7.4522,486,1.5677
7.4564,483,1.5581
7.4606,483,1.5581
7.4648,485,1.5645
7.4689,492,1.5871
7.4731,501,1.6161
7.4773,497,1.6032
7.4815,492,1.5871
7.4856,490,1.5806
7.4898,498,1.6065
7.4940,503,1.6226
7.4982,505,1.6290
7.5024,496,1.6000
7.5065,498,1.6065
7.5107,510,1.6452
7.5149,511,1.6484
7.5191,515,1.6613
7.5233,513,1.6548
7.5274,516,1.6645
7.5316,523,1.6871
7.5358,520,1.6774
7.5400,521,1.6806
7.5442,525,1.6935
7.5484,531,1.7129
7.5525,538,1.7355
7.5567,536,1.7290
7.5609,542,1.7484
7.5651,549,1.7710
7.5692,558,1.8000
7.5736,559,1.8032
7.5780,562,1.8129
7.5830,573,1.8484
7.5876,575,1.8548
7.5921,572,1.8452
7.5967,575,1.8548
7.6012,586,1.8903
7.6057,593,1.9129
7.6100,598,1.9290
7.6145,587,1.8935
7.6188,585,1.8871
7.6231,590,1.9032
7.6273,597,1.9258
7.6315,603,1.9452
7.6357,599,1.9323
7.6399,603,1.9452
7.6440,606,1.9548
7.6482,607,1.9581
7.6523,600,1.9355
7.6565,589,1.9000
7.6607,593,1.9129
7.6649,592,1.9097
7.6691,578,1.8645
7.6733,555,1.7903
7.6774,535,1.7258
7.6816,532,1.7161
7.6858,533,1.7194
7.6900,526,1.6968
7.6941,508,1.6387
7.6983,493,1.5903
7.7025,489,1.5774
7.7068,490,1.5806
7.7112,497,1.6032
7.7155,483,1.5581
7.7198,470,1.5161
7.7242,470,1.5161
7.7285,483,1.5581
7.7328,490,1.5806
7.7371,487,1.5710
7.7413,486,1.5677
7.7456,490,1.5806
7.7499,492,1.5871
7.7540,484,1.5613
7.7582,475,1.5323
7.7624,469,1.5129
7.7665,474,1.5290
7.7707,485,1.5645
7.7749,482,1.5548
7.7790,474,1.5290
7.7832,469,1.5129
7.7873,477,1.5387
7.7915,487,1.5710
7.7957,485,1.5645
7.7998,475,1.5323
7.8040,471,1.5194
7.8082,479,1.5452
7.8123,486,1.5677
7.8165,473,1.5258
7.8207,459,1.4806
7.8248,462,1.4903
7.8290,480,1.5484
7.8332,483,1.5581
7.8373,466,1.5032
7.8415,451,1.4548
7.8457,455,1.4677
7.8498,473,1.5258
7.8540,479,1.5452
7.8582,464,1.4968
7.8623,452,1.4581
7.8665,465,1.5000
7.8706,487,1.5710
7.8748,483,1.5581
7.8790,456,1.4710
7.8831,442,1.4258
7.8873,456,1.4710
7.8915,474,1.5290
7.8956,470,1.5161
7.8998,456,1.4710
7.9039,463,1.4935
7.9081,489,1.5774
7.9123,504,1.6258
7.9164,493,1.5903
7.9206,478,1.5419
7.9248,486,1.5677
7.9290,513,1.6548
7.9332,527,1.7000
7.9374,521,1.6806
7.9416,513,1.6548
7.9459,520,1.6774
7.9501,521,1.6806
7.9544,498,1.6065
7.9585,468,1.5097
7.9627,451,1.4548
7.9668,460,1.4839
7.9710,470,1.5161
7.9752,466,1.5032
7.9793,449,1.4484
7.9835,449,1.4484
7.9877,470,1.5161
7.9918,483,1.5581
7.9960,475,1.5323
8.0002,459,1.4806
8.0043,457,1.4742
8.0085,469,1.5129
8.0127,468,1.5097
8.0168,449,1.4484
8.0210,427,1.3774
8.0252,430,1.3871
8.0294,475,1.5323
8.0336,536,1.7290
8.0377,601,1.9387
8.0419,705,2.2742
8.0461,843,2.7194
8.0502,975,3.1452
8.0544,997,3.2161
8.0586,999,3.2226
8.0627,988,3.1871
8.0669,898,2.8968
8.0711,768,2.4774
8.0753,645,2.0806
8.0795,536,1.7290
8.0836,455,1.4677
8.0879,410,1.3226
8.0921,396,1.2774
8.0964,389,1.2548
8.1006,381,1.2290
8.1049,399,1.2871
8.1092,430,1.3871
8.1134,444,1.4323
8.1176,433,1.3968
8.1219,419,1.3516
8.1262,426,1.3742
8.1304,448,1.4452
8.1346,448,1.4452
8.1389,429,1.3839
8.1431,422,1.3613
8.1473,442,1.4258
8.1516,462,1.4903
8.1558,469,1.5129
8.1601,464,1.4968
8.1643,472,1.5226
8.1686,487,1.5710
8.1728,473,1.5258
8.1770,441,1.4226
8.1814,427,1.3774
8.1856,431,1.3903
8.1900,460,1.4839
8.1943,472,1.5226
8.1986,461,1.4871
8.2029,455,1.4677
8.2072,473,1.5258
8.2115,493,1.5903
8.2158,490,1.5806
8.2201,475,1.5323
8.2244,476,1.5355
8.2287,500,1.6129
8.2329,512,1.6516
8.2372,507,1.6355
8.2416,496,1.6000
8.2459,505,1.6290
8.2503,525,1.6935
8.2547,531,1.7129
8.2591,520,1.6774
8.2633,519,1.6742
8.2676,537,1.7323
8.2719,552,1.7806
8.2762,543,1.7516
8.2805,523,1.6871
8.2848,528,1.7032
8.2891,550,1.7742
8.2933,559,1.8032
8.2976,548,1.7677
8.3018,539,1.7387
8.3061,550,1.7742
8.3104,570,1.8387
8.3146,566,1.8258
8.3189,542,1.7484
8.3232,528,1.7032
8.3274,541,1.7452
8.3317,550,1.7742
8.3360,529,1.7065
8.3402,500,1.6129
8.3445,491,1.5839
8.3488,506,1.6323
8.3530,509,1.6419
8.3573,487,1.5710
8.3616,470,1.5161
8.3658,476,1.5355
8.3701,491,1.5839
8.3744,490,1.5806
8.3786,471,1.5194
8.3829,460,1.4839
8.3873,477,1.5387
8.3916,496,1.6000
8.3959,496,1.6000
8.4002,479,1.5452
8.4045,476,1.5355
8.4088,499,1.6097
8.4131,509,1.6419
8.4175,497,1.6032
8.4218,480,1.5484
8.4261,479,1.5452
8.4304,497,1.6032
8.4347,500,1.6129
8.4389,485,1.5645
8.4433,477,1.5387
8.4475,491,1.5839
8.4518,506,1.6323
8.4561,502,1.6194
8.4604,483,1.5581
8.4647,480,1.5484
8.4690,498,1.6065
8.4733,508,1.6387
8.4776,494,1.5935
8.4819,480,1.5484
8.4862,484,1.5613
8.4905,500,1.6129
8.4948,501,1.6161
8.4991,481,1.5516
8.5033,472,1.5226
8.5076,492,1.5871
8.5119,508,1.6387
8.5161,496,1.6000
8.5204,472,1.5226
8.5246,468,1.5097
8.5289,486,1.5677
8.5331,496,1.6000
8.5374,485,1.5645
8.5416,472,1.5226
8.5459,476,1.5355
8.5502,495,1.5968
8.5544,497,1.6032
8.5587,483,1.5581
8.5629,480,1.5484
8.5672,502,1.6194
8.5714,522,1.6839
8.5757,520,1.6774
8.5799,504,1.6258
8.5842,506,1.6323
8.5884,532,1.7161
8.5928,550,1.7742
8.5970,539,1.7387
8.6013,519,1.6742
8.6056,517,1.6677
8.6099,529,1.7065
8.6142,526,1.6968
8.6185,504,1.6258
8.6228,484,1.5613
8.6271,486,1.5677
8.6314,494,1.5935
8.6357,489,1.5774
8.6400,469,1.5129
8.6442,465,1.5000
8.6486,483,1.5581
8.6529,497,1.6032
8.6572,483,1.5581
8.6614,466,1.5032
8.6657,468,1.5097
8.6701,484,1.5613
8.6744,481,1.5516
8.6786,457,1.4742
8.6829,442,1.4258
8.6872,459,1.4806
8.6915,511,1.6484
8.6958,576,1.8581
8.7001,652,2.1032
8.7044,780,2.5161
8.7087,935,3.0161
8.7130,1000,3.2258
8.7173,1001,3.2290
8.7216,999,3.2226
8.7259,992,3.2000
8.7302,884,2.8516
8.7345,725,2.3387
8.7388,583,1.8806
8.7431,478,1.5419
8.7474,426,1.3742
8.7517,421,1.3581
8.7560,424,1.3677
8.7603,419,1.3516
8.7646,428,1.3806
8.7689,449,1.4484
8.7732,456,1.4710
8.7775,440,1.4194
8.7818,426,1.3742
8.7861,434,1.4000
8.7904,456,1.4710
8.7947,461,1.4871
8.7990,446,1.4387
8.8033,441,1.4226
8.8076,455,1.4677
8.8119,466,1.5032
8.8162,458,1.4774
8.8205,442,1.4258
8.8248,443,1.4290
8.8291,465,1.5000
8.8334,474,1.5290
8.8377,464,1.4968
8.8420,459,1.4806
8.8464,472,1.5226
8.8508,492,1.5871
8.8555,484,1.5613
8.8598,464,1.4968
8.8641,465,1.5000
8.8684,486,1.5677
8.8727,499,1.6097
8.8770,493,1.5903
8.8813,482,1.5548
8.8856,485,1.5645
8.8899,505,1.6290
8.8942,514,1.6581
8.8985,503,1.6226
8.9029,499,1.6097
8.9072,515,1.6613
8.9115,540,1.7419
8.9157,547,1.7645
8.9200,532,1.7161
8.9243,529,1.7065
8.9286,551,1.7774
8.9328,562,1.8129
8.9371,552,1.7806
8.9413,538,1.7355
8.9456,541,1.7452
8.9499,566,1.8258
8.9541,574,1.8516
8.9584,556,1.7935
8.9626,544,1.7548
8.9669,556,1.7935
8.9712,577,1.8613
8.9754,574,1.8516
8.9797,550,1.7742
8.9840,541,1.7452
8.9882,551,1.7774
8.9925,555,1.7903
8.9973,538,1.7355
9.0018,511,1.6484
9.0066,499,1.6097
9.0143,512,1.6516
9.0187,497,1.6032
9.0232,480,1.5484
9.0276,481,1.5516
9.0320,487,1.5710
9.0364,474,1.5290
9.0408,459,1.4806
9.0451,468,1.5097
9.0494,490,1.5806
9.0538,486,1.5677
9.0582,458,1.4774
9.0625,444,1.4323
9.0669,461,1.4871
9.0713,489,1.5774
9.0756,491,1.5839
9.0800,475,1.5323
9.0842,475,1.5323
9.0885,493,1.5903
9.0928,508,1.6387
9.0971,501,1.6161
9.1014,482,1.5548
9.1057,488,1.5742
9.1100,512,1.6516
9.1142,518,1.6710
9.1184,501,1.6161
9.1226,489,1.5774
9.1267,493,1.5903
9.1309,506,1.6323
9.1352,509,1.6419
9.1394,490,1.5806
9.1436,478,1.5419
9.1478,484,1.5613
9.1521,495,1.5968
9.1564,495,1.5968
9.1606,479,1.5452
9.1648,475,1.5323
9.1690,492,1.5871
9.1732,501,1.6161
9.1773,485,1.5645
9.1815,467,1.5065
9.1857,472,1.5226
9.1899,498,1.6065
9.1941,509,1.6419
9.1982,491,1.5839
9.2024,464,1.4968
9.2066,464,1.4968
9.2108,488,1.5742
9.2149,497,1.6032
9.2191,482,1.5548
9.2233,479,1.5452
9.2275,498,1.6065
9.2317,512,1.6516
9.2361,499,1.6097
9.2403,484,1.5613
9.2445,481,1.5516
9.2487,494,1.5935
9.2528,503,1.6226
9.2570,508,1.6387
9.2612,512,1.6516
9.2654,515,1.6613
9.2696,532,1.7161
9.2738,536,1.7290
9.2780,543,1.7516
9.2822,553,1.7839
9.2863,551,1.7774
9.2905,563,1.8161
9.2947,567,1.8290
9.2989,578,1.8645
9.3030,576,1.8581
9.3072,554,1.7871
9.3114,536,1.7290
9.3156,514,1.6581
9.3198,520,1.6774
9.3239,500,1.6129
9.3281,484,1.5613
9.3323,487,1.5710
9.3365,493,1.5903
9.3407,504,1.6258
9.3448,488,1.5742
9.3490,485,1.5645
9.3532,486,1.5677
9.3574,488,1.5742
9.3616,484,1.5613
9.3658,475,1.5323
9.3699,472,1.5226
9.3741,461,1.4871
9.3783,447,1.4419
9.3825,441,1.4226
9.3866,469,1.5129
9.3908,544,1.7548
9.3950,630,2.0323
9.3993,744,2.4000
9.4039,887,2.8613
9.4083,999,3.2226
9.4129,1002,3.2323
9.4174,1000,3.2258
9.4219,996,3.2129
9.4284,834,2.6903
9.4330,657,2.1194
9.4376,541,1.7452
9.4420,471,1.5194
9.4465,436,1.4065
9.4508,443,1.4290
9.4551,444,1.4323
9.4593,457,1.4742
9.4635,473,1.5258
9.4676,476,1.5355
9.4718,469,1.5129
9.4760,444,1.4323
9.4801,449,1.4484
9.4843,452,1.4581
9.4884,452,1.4581
9.4926,456,1.4710
9.4968,454,1.4645
9.5010,465,1.5000
9.5051,463,1.4935
9.5093,460,1.4839
9.5135,463,1.4935
9.5176,458,1.4774
9.5218,460,1.4839
9.5260,457,1.4742
9.5301,460,1.4839
9.5343,468,1.5097
9.5384,477,1.5387
9.5426,485,1.5645
9.5468,481,1.5516
9.5509,483,1.5581
9.5551,476,1.5355
9.5593,475,1.5323
9.5635,478,1.5419
9.5676,482,1.5548
9.5720,495,1.5968
9.5762,498,1.6065
9.5805,510,1.6452
9.5847,508,1.6387
9.5889,502,1.6194
9.5931,500,1.6129
9.5972,496,1.6000
9.6014,502,1.6194
9.6056,502,1.6194
9.6098,512,1.6516
9.6140,527,1.7000
9.6182,531,1.7129
9.6224,536,1.7290
9.6266,546,1.7613
9.6307,549,1.7710
9.6349,546,1.7613
9.6391,541,1.7452
9.6433,537,1.7323
9.6475,541,1.7452
9.6517,555,1.7903
9.6559,557,1.7968
9.6601,553,1.7839
9.6644,548,1.7677
9.6688,554,1.7871
9.6731,563,1.8161
9.6774,552,1.7806
9.6816,542,1.7484
9.6859,533,1.7194
9.6903,534,1.7226
9.6945,530,1.7097
9.6988,506,1.6323
9.7030,480,1.5484
9.7071,479,1.5452
9.7113,485,1.5645
9.7155,477,1.5387
9.7197,456,1.4710
9.7239,439,1.4161
9.7281,443,1.4290
9.7322,458,1.4774
9.7364,460,1.4839
9.7406,444,1.4323
9.7459,442,1.4258
9.7503,460,1.4839
9.7548,467,1.5065
9.7593,457,1.4742
9.7641,453,1.4613
9.7685,470,1.5161
9.7729,483,1.5581
9.7772,475,1.5323
9.7817,457,1.4742
9.7862,462,1.4903
9.7907,485,1.5645
9.7951,491,1.5839
9.7993,475,1.5323
9.8036,463,1.4935
9.8077,475,1.5323
9.8120,493,1.5903
9.8161,490,1.5806
9.8204,477,1.5387
9.8247,471,1.5194
9.8290,482,1.5548
9.8332,497,1.6032
9.8374,491,1.5839
9.8417,472,1.5226
9.8459,471,1.5194
9.8501,485,1.5645
9.8544,492,1.5871
9.8586,485,1.5645
9.8628,476,1.5355
9.8671,480,1.5484
9.8713,492,1.5871
9.8755,492,1.5871
9.8798,495,1.5968
9.8840,503,1.6226
9.8883,503,1.6226
9.8925,501,1.6161
9.8967,504,1.6258
9.9009,538,1.7355
9.9052,569,1.8355
9.9094,572,1.8452
9.9138,562,1.8129
9.9183,560,1.8065
9.9297,607,1.9581
9.9341,594,1.9161
9.9385,581,1.8742
9.9428,592,1.9097
9.9471,598,1.9290
9.9515,575,1.8548
9.9558,559,1.8032
9.9601,567,1.8290
9.9644,581,1.8742
9.9687,573,1.8484
9.9730,545,1.7581
9.9773,532,1.7161
9.9816,548,1.7677
9.9859,559,1.8032
9.9902,542,1.7484
9.9945,529,1.7065
9.9988,542,1.7484
10.0031,565,1.8226
10.0074,557,1.7968
10.0132,520,1.6774
10.0176,514,1.6581
10.0220,538,1.7355
10.0263,542,1.7484
10.0306,521,1.6806
10.0348,497,1.6032
10.0391,495,1.5968
10.0433,486,1.5677
10.0476,461,1.4871
10.0519,450,1.4516
10.0563,438,1.4129
10.0606,440,1.4194
10.0649,433,1.3968
10.0691,440,1.4194
10.0734,455,1.4677
10.0777,462,1.4903
10.0820,468,1.5097
10.0863,459,1.4806
10.0906,467,1.5065
10.0947,476,1.5355
10.0989,471,1.5194
10.1031,444,1.4323
10.1072,413,1.3323
10.1114,399,1.2871
10.1155,409,1.3194
10.1197,466,1.5032
10.1238,547,1.7645
10.1280,656,2.1161
10.1322,796,2.5677
10.1363,933,3.0097
10.1405,999,3.2226
10.1446,1003,3.2355
10.1488,1000,3.2258
10.1530,990,3.1935
10.1572,857,2.7645
10.1614,686,2.2129
10.1656,544,1.7548
10.1698,458,1.4774
10.1740,409,1.3194
10.1781,395,1.2742
10.1823,403,1.3000
10.1865,404,1.3032
10.1907,424,1.3677
10.1948,438,1.4129
10.1990,437,1.4097
10.2032,415,1.3387
10.2074,401,1.2935
10.2116,414,1.3355
10.2158,421,1.3581
10.2199,418,1.3484
10.2241,409,1.3194
10.2283,416,1.3419
10.2325,431,1.3903
10.2366,434,1.4000
10.2408,422,1.3613
10.2450,418,1.3484
10.2492,433,1.3968
10.2534,449,1.4484
10.2576,448,1.4452
10.2619,435,1.4032
10.2661,436,1.4065
10.2704,457,1.4742
10.2748,462,1.4903
10.2791,454,1.4645
10.2834,446,1.4387
10.2877,455,1.4677
10.2920,476,1.5355
10.2962,481,1.5516
10.3005,476,1.5355
10.3047,478,1.5419
10.3089,496,1.6000
10.3131,512,1.6516
10.3173,504,1.6258
10.3215,492,1.5871
10.3256,482,1.5548
10.3298,493,1.5903
10.3340,512,1.6516
10.3382,523,1.6871
10.3424,531,1.7129
10.3467,527,1.7000
10.3509,544,1.7548
10.3552,551,1.7774
10.3593,559,1.8032
10.3635,562,1.8129
10.3677,550,1.7742
10.3719,549,1.7710
10.3761,553,1.7839
10.3803,574,1.8516
10.3844,587,1.8935
10.3887,592,1.9097
10.3929,593,1.9129
10.3971,570,1.8387
10.4013,566,1.8258
10.4055,556,1.7935
10.4097,545,1.7581
10.4139,541,1.7452
10.4181,535,1.7258
10.4222,538,1.7355
10.4265,521,1.6806
10.4307,510,1.6452
10.4350,503,1.6226
10.4393,505,1.6290
10.4435,506,1.6323
10.4478,490,1.5806
10.4520,478,1.5419
10.4563,464,1.4968
10.4604,467,1.5065
10.4646,456,1.4710
10.4689,445,1.4355
10.4731,439,1.4161
10.4774,433,1.3968
10.4816,448,1.4452
10.4857,451,1.4548
10.4899,456,1.4710
10.4941,460,1.4839
10.4983,465,1.5000
10.5025,478,1.5419
10.5067,474,1.5290
10.5110,474,1.5290
10.5152,476,1.5355
10.5194,482,1.5548
10.5236,482,1.5548
10.5278,473,1.5258
10.5319,477,1.5387
10.5361,477,1.5387
10.5403,484,1.5613
10.5445,483,1.5581
10.5487,482,1.5548
10.5529,486,1.5677
10.5571,481,1.5516
10.5613,488,1.5742
10.5655,484,1.5613
10.5696,486,1.5677
10.5738,492,1.5871
10.5780,483,1.5581
10.5822,487,1.5710
10.5864,482,1.5548
10.5906,484,1.5613
10.5947,483,1.5581
10.5989,481,1.5516
10.6035,496,1.6000
10.6081,495,1.5968
10.6127,499,1.6097
10.6172,489,1.5774
10.6216,498,1.6065
10.6260,497,1.6032
10.6304,494,1.5935
10.6349,494,1.5935
10.6393,482,1.5548
10.6437,480,1.5484
10.6480,472,1.5226
10.6522,467,1.5065
10.6563,458,1.4774
10.6605,468,1.5097
10.6647,483,1.5581
10.6689,481,1.5516
10.6730,477,1.5387
10.6772,469,1.5129
10.6814,483,1.5581
10.6855,489,1.5774
10.6897,486,1.5677
10.6939,487,1.5710
10.6980,478,1.5419
10.7022,486,1.5677
10.7064,492,1.5871
10.7106,495,1.5968
10.7147,498,1.6065
10.7190,501,1.6161
10.7232,507,1.6355
10.7274,506,1.6323
10.7317,504,1.6258
10.7359,482,1.5548
10.7402,474,1.5290
10.7444,485,1.5645
10.7487,483,1.5581
10.7529,476,1.5355
10.7571,471,1.5194
10.7620,497,1.6032
10.7667,514,1.6581
10.7714,510,1.6452
10.7760,502,1.6194
10.7806,514,1.6581
10.7854,537,1.7323
10.7901,538,1.7355
10.7946,529,1.7065
10.7990,525,1.6935
10.8034,535,1.7258
10.8084,525,1.6935
10.8129,512,1.6516
10.8173,495,1.5968
10.8217,500,1.6129
10.8260,507,1.6355
10.8303,502,1.6194
10.8346,492,1.5871
10.8388,480,1.5484
10.8430,491,1.5839
10.8472,488,1.5742
10.8514,483,1.5581
10.8556,478,1.5419
10.8598,483,1.5581
10.8640,498,1.6065
10.8682,500,1.6129
10.8725,499,1.6097
10.8767,483,1.5581
10.8809,469,1.5129
10.8851,463,1.4935
10.8893,467,1.5065
10.8935,504,1.6258
10.8978,566,1.8258
10.9020,670,2.1613
10.9062,802,2.5871
10.9108,959,3.0935
10.9151,998,3.2194
10.9196,1002,3.2323
10.9242,1001,3.2290
10.9287,997,3.2161
10.9332,873,2.8161
10.9378,673,2.1710
10.9423,549,1.7710
10.9474,470,1.5161
10.9519,446,1.4387
10.9562,440,1.4194
10.9605,456,1.4710
10.9648,481,1.5516
10.9690,473,1.5258
10.9732,449,1.4484
10.9774,427,1.3774
10.9817,438,1.4129
10.9859,449,1.4484
10.9902,447,1.4419
10.9944,448,1.4452
10.9986,445,1.4355
11.0028,456,1.4710
11.0070,460,1.4839
11.0112,458,1.4774
11.0153,457,1.4742
11.0195,459,1.4806
11.0237,474,1.5290
11.0279,484,1.5613
11.0324,488,1.5742
11.0366,479,1.5452
11.0408,481,1.5516
11.0450,484,1.5613
11.0491,477,1.5387
11.0533,476,1.5355
11.0575,468,1.5097
11.0617,478,1.5419
11.0659,485,1.5645
11.0700,487,1.5710
11.0743,492,1.5871
11.0786,491,1.5839
11.0829,506,1.6323
11.0873,512,1.6516
11.0916,515,1.6613
11.0959,524,1.6903
11.1002,530,1.7097
11.1045,529,1.7065
11.1088,521,1.6806
11.1131,530,1.7097
11.1174,537,1.7323
11.1217,551,1.7774
11.1260,552,1.7806
11.1302,546,1.7613
11.1344,547,1.7645
11.1386,544,1.7548
11.1429,557,1.7968
11.1470,563,1.8161
11.1512,571,1.8419
11.1554,572,1.8452
11.1596,567,1.8290
11.1638,575,1.8548
11.1680,574,1.8516
11.1722,572,1.8452
11.1763,566,1.8258
11.1805,569,1.8355
11.1847,577,1.8613
11.1889,575,1.8548
11.1930,557,1.7968
11.1972,527,1.7000
11.2013,521,1.6806
11.2055,526,1.6968
11.2097,513,1.6548
11.2138,501,1.6161
11.2180,481,1.5516
11.2221,483,1.5581
11.2263,482,1.5548
11.2305,477,1.5387
11.2346,469,1.5129
11.2388,454,1.4645
11.2430,459,1.4806
11.2471,458,1.4774
11.2513,457,1.4742
11.2555,461,1.4871
11.2596,465,1.5000
11.2638,473,1.5258
11.2680,469,1.5129
11.2721,465,1.5000
11.2763,462,1.4903
11.2805,469,1.5129
11.2846,479,1.5452
11.2888,479,1.5452
11.2930,478,1.5419
11.2972,469,1.5129
11.3013,475,1.5323
11.3055,487,1.5710
11.3097,489,1.5774
11.3138,493,1.5903
11.3180,485,1.5645
11.3222,493,1.5903
11.3264,495,1.5968
11.3305,491,1.5839
11.3347,492,1.5871
11.3388,486,1.5677
11.3430,494,1.5935
11.3472,496,1.6000
11.3513,493,1.5903
11.3555,486,1.5677
11.3596,478,1.5419
11.3638,489,1.5774
11.3680,487,1.5710
11.3721,483,1.5581
11.3763,478,1.5419
11.3805,476,1.5355
11.3846,485,1.5645
11.3888,487,1.5710
11.3930,489,1.5774
11.3971,482,1.5548
11.4013,482,1.5548
11.4055,484,1.5613
11.4096,481,1.5516
11.4138,487,1.5710
11.4180,480,1.5484
11.4221,483,1.5581
11.4263,483,1.5581
11.4305,476,1.5355
11.4346,473,1.5258
11.4388,468,1.5097
11.4429,478,1.5419
11.4471,480,1.5484
11.4513,476,1.5355
11.4554,473,1.5258
11.4596,470,1.5161
11.4637,481,1.5516
11.4679,485,1.5645
11.4722,485,1.5645
11.4764,484,1.5613
11.4805,483,1.5581
11.4847,490,1.5806
11.4889,489,1.5774
11.4931,489,1.5774
11.4972,484,1.5613
11.5014,487,1.5710
11.5055,491,1.5839
11.5097,489,1.5774
11.5138,491,1.5839
11.5180,486,1.5677
11.5222,495,1.5968
11.5264,494,1.5935
11.5306,483,1.5581
11.5348,480,1.5484
11.5390,472,1.5226
11.5432,482,1.5548
11.5475,489,1.5774
11.5517,488,1.5742
11.5559,490,1.5806
11.5601,496,1.6000
11.5643,511,1.6484
11.5686,512,1.6516
11.5729,508,1.6387
11.5771,499,1.6097
11.5814,506,1.6323
11.5856,522,1.6839
11.5898,527,1.7000
11.5940,523,1.6871
11.5982,505,1.6290
11.6024,500,1.6129
11.6066,494,1.5935
11.6108,493,1.5903
11.6151,497,1.6032
11.6193,488,1.5742
11.6235,499,1.6097
11.6278,502,1.6194
11.6320,497,1.6032
11.6363,493,1.5903
11.6406,492,1.5871
11.6449,497,1.6032
11.6492,495,1.5968
11.6535,496,1.6000
11.6578,483,1.5581
11.6621,479,1.5452
11.6665,476,1.5355
11.6709,477,1.5387
11.6753,512,1.6516
11.6797,575,1.8548
11.6840,668,2.1548
11.6883,789,2.5452
11.6926,920,2.9677
11.6969,997,3.2161
11.7012,1001,3.2290
11.7055,999,3.2226
11.7098,996,3.2129
11.7141,913,2.9452
11.7184,751,2.4226
11.7227,629,2.0290
11.7270,537,1.7323
11.7313,460,1.4839
11.7356,426,1.3742
11.7398,420,1.3548
11.7441,440,1.4194
11.7484,453,1.4613
11.7526,462,1.4903
11.7569,460,1.4839
11.7611,460,1.4839
11.7654,467,1.5065
11.7697,466,1.5032
11.7739,470,1.5161
11.7782,463,1.4935
11.7825,468,1.5097
11.7867,476,1.5355
11.7910,475,1.5323
11.7953,476,1.5355
11.7995,471,1.5194
11.8039,479,1.5452
11.8081,476,1.5355
11.8126,473,1.5258
11.8170,473,1.5258
11.8214,477,1.5387
11.8256,489,1.5774
11.8299,488,1.5742
11.8341,489,1.5774
11.8384,483,1.5581
11.8427,496,1.6000
11.8470,504,1.6258
11.8513,504,1.6258
11.8556,506,1.6323
11.8599,504,1.6258
11.8641,515,1.6613
11.8684,518,1.6710
11.8726,519,1.6742
11.8769,519,1.6742
11.8812,521,1.6806
11.8855,533,1.7194
11.8897,538,1.7355
11.8940,541,1.7452
11.8982,534,1.7226
11.9025,543,1.7516
11.9067,550,1.7742
11.9110,552,1.7806
11.9153,559,1.8032
11.9195,557,1.7968
11.9238,568,1.8323
11.9281,570,1.8387
11.9325,571,1.8419
11.9367,569,1.8355
11.9410,568,1.8323
11.9453,578,1.8645
11.9496,581,1.8742
11.9539,580,1.8710
11.9582,566,1.8258
11.9625,564,1.8194
11.9669,564,1.8194
11.9713,559,1.8032
11.9757,549,1.7710
11.9801,534,1.7226
11.9844,534,1.7226
11.9889,530,1.7097
11.9933,519,1.6742
11.9978,498,1.6065
12.0024,491,1.5839
12.0070,490,1.5806
12.0116,479,1.5452
12.0162,475,1.5323
12.0207,467,1.5065
12.0255,469,1.5129
12.0301,465,1.5000
12.0347,461,1.4871
12.0392,452,1.4581
12.0443,469,1.5129
12.0488,476,1.5355
12.0531,476,1.5355
12.0575,468,1.5097
12.0617,466,1.5032
12.0660,472,1.5226
12.0703,477,1.5387
12.0746,483,1.5581
12.0789,479,1.5452
12.0832,486,1.5677
12.0875,487,1.5710
12.0918,487,1.5710
12.0961,492,1.5871
12.1003,488,1.5742
12.1046,497,1.6032
12.1088,499,1.6097
12.1132,497,1.6032
12.1174,491,1.5839
12.1217,488,1.5742
12.1260,494,1.5935
12.1303,499,1.6097
12.1347,495,1.5968
12.1390,483,1.5581
12.1432,485,1.5645
12.1475,481,1.5516
12.1517,476,1.5355
12.1560,476,1.5355
12.1602,474,1.5290
12.1644,485,1.5645
12.1686,487,1.5710
12.1742,486,1.5677
12.1785,477,1.5387
12.1828,481,1.5516
12.1872,481,1.5516
12.1916,478,1.5419
12.1959,479,1.5452
12.2001,478,1.5419
12.2044,486,1.5677
12.2087,485,1.5645
12.2130,477,1.5387
12.2174,468,1.5097
12.2217,470,1.5161
12.2260,475,1.5323
12.2302,473,1.5258
12.2344,476,1.5355
12.2386,470,1.5161
12.2428,470,1.5161
12.2469,469,1.5129
12.2511,472,1.5226
12.2553,479,1.5452
12.2594,475,1.5323
12.2636,474,1.5290
12.2677,468,1.5097
12.2719,471,1.5194
12.2761,478,1.5419
12.2803,472,1.5226
12.2845,468,1.5097
12.2886,461,1.4871
12.2928,469,1.5129
12.2970,475,1.5323
12.3011,472,1.5226
12.3053,470,1.5161
12.3095,469,1.5129
12.3137,478,1.5419
12.3178,479,1.5452
12.3220,485,1.5645
12.3262,485,1.5645
12.3303,484,1.5613
12.3345,491,1.5839
12.3386,484,1.5613
12.3428,486,1.5677
12.3470,488,1.5742
12.3511,487,1.5710
12.3553,492,1.5871
12.3595,486,1.5677
12.3636,490,1.5806
12.3678,494,1.5935
12.3719,504,1.6258
12.3761,509,1.6419
12.3803,500,1.6129
12.3845,504,1.6258
12.3887,507,1.6355
12.3928,515,1.6613
12.3970,519,1.6742
12.4012,516,1.6645
12.4053,513,1.6548
12.4095,508,1.6387
12.4136,506,1.6323
12.4178,494,1.5935
12.4220,488,1.5742
12.4261,492,1.5871
12.4303,490,1.5806
12.4345,494,1.5935
12.4386,490,1.5806
12.4428,498,1.6065
12.4469,503,1.6226
12.4511,503,1.6226
12.4553,505,1.6290
12.4595,495,1.5968
12.4637,500,1.6129
12.4680,501,1.6161
12.4727,485,1.5645
12.4772,468,1.5097
12.4816,470,1.5161
12.4859,514,1.6581
12.4902,575,1.8548
12.4945,651,2.1000
12.4988,745,2.4032
12.5030,888,2.8645
12.5072,996,3.2129
12.5114,1000,3.2258
12.5156,1000,3.2258
12.5198,994,3.2065
12.5241,994,3.2065
12.5283,892,2.8774
12.5326,701,2.2613
12.5369,555,1.7903
12.5411,464,1.4968
12.5453,445,1.4355
12.5495,451,1.4548
12.5537,452,1.4581
12.5583,447,1.4419
12.5626,462,1.4903
12.5670,485,1.5645
12.5713,484,1.5613
12.5756,470,1.5161
12.5799,456,1.4710
12.5844,471,1.5194
12.5890,479,1.5452
12.5934,466,1.5032
12.5979,453,1.4613
12.6025,466,1.5032
12.6076,482,1.5548
12.6120,474,1.5290
12.6163,463,1.4935
12.6207,462,1.4903
12.6251,488,1.5742
12.6294,494,1.5935
12.6337,483,1.5581
12.6380,472,1.5226
12.6423,484,1.5613
12.6466,506,1.6323
12.6509,510,1.6452
12.6553,502,1.6194
12.6596,491,1.5839
12.6639,503,1.6226
12.6683,504,1.6258
12.6731,500,1.6129
12.6774,497,1.6032
12.6817,497,1.6032
12.6859,503,1.6226
12.6902,505,1.6290
12.6944,510,1.6452
12.6985,511,1.6484
12.7031,518,1.6710
12.7073,520,1.6774
12.7115,524,1.6903
12.7157,534,1.7226
12.7199,535,1.7258
12.7241,537,1.7323
12.7283,534,1.7226
12.7325,545,1.7581
12.7367,554,1.7871
12.7409,549,1.7710
12.7451,545,1.7581
12.7494,549,1.7710
12.7539,562,1.8129
12.7582,563,1.8161
12.7627,549,1.7710
12.7672,543,1.7516
12.7715,555,1.7903
12.7758,565,1.8226
12.7803,551,1.7774
12.7846,527,1.7000
12.7890,521,1.6806
12.7933,533,1.7194
12.7975,531,1.7129
12.8018,504,1.6258
12.8061,481,1.5516
12.8104,480,1.5484
12.8147,490,1.5806
12.8192,480,1.5484
12.8237,452,1.4581
12.8279,443,1.4290
12.8322,459,1.4806
12.8365,468,1.5097
12.8410,452,1.4581
12.8456,436,1.4065
12.8500,441,1.4226
12.8543,459,1.4806
12.8587,463,1.4935
12.8630,445,1.4355
12.8674,437,1.4097
12.8717,459,1.4806
12.8761,478,1.5419
12.8804,473,1.5258
12.8847,459,1.4806
12.8889,460,1.4839
12.8932,482,1.5548
12.8974,490,1.5806
12.9017,477,1.5387
12.9059,465,1.5000
12.9102,476,1.5355
12.9144,500,1.6129
12.9186,506,1.6323
12.9228,486,1.5677
12.9271,471,1.5194
12.9313,481,1.5516
12.9356,494,1.5935
12.9399,489,1.5774
12.9441,467,1.5065
12.9483,460,1.4839
12.9525,476,1.5355
12.9567,483,1.5581
12.9610,474,1.5290
12.9654,464,1.4968
12.9697,475,1.5323
12.9741,496,1.6000
12.9784,495,1.5968
12.9826,463,1.4935
12.9869,445,1.4355
12.9912,457,1.4742
12.9955,479,1.5452
12.9998,483,1.5581
13.0041,462,1.4903
13.0083,448,1.4452
13.0125,461,1.4871
13.0167,471,1.5194
13.0209,460,1.4839
13.0251,450,1.4516
13.0294,458,1.4774
13.0336,477,1.5387
13.0379,479,1.5452
13.0421,463,1.4935
13.0463,449,1.4484
13.0505,455,1.4677
13.0549,465,1.5000
13.0592,467,1.5065
13.0634,448,1.4452
13.0676,440,1.4194
13.0721,458,1.4774
13.0764,470,1.5161
13.0806,464,1.4968
13.0848,451,1.4548
13.0890,451,1.4548
13.0932,471,1.5194
13.0974,480,1.5484
13.1016,463,1.4935
13.1059,449,1.4484
13.1102,457,1.4742
13.1144,477,1.5387
13.1187,483,1.5581
13.1230,468,1.5097
13.1272,459,1.4806
13.1314,472,1.5226
13.1356,488,1.5742
13.1398,483,1.5581
13.1440,458,1.4774
13.1483,450,1.4516
13.1525,474,1.5290
13.1568,490,1.5806
13.1610,480,1.5484
13.1652,460,1.4839
13.1695,458,1.4774
13.1736,479,1.5452
13.1778,489,1.5774
13.1820,474,1.5290
13.1862,460,1.4839
13.1905,468,1.5097
13.1947,491,1.5839
13.1990,495,1.5968
13.2031,475,1.5323
13.2073,469,1.5129
13.2115,481,1.5516
13.2156,496,1.6000
13.2198,499,1.6097
13.2240,483,1.5581
13.2281,477,1.5387
13.2323,494,1.5935
13.2364,508,1.6387
13.2406,501,1.6161
13.2448,484,1.5613
13.2489,483,1.5581
13.2531,506,1.6323
13.2573,515,1.6613
13.2615,500,1.6129
13.2656,487,1.5710
13.2699,494,1.5935
13.2741,514,1.6581
13.2784,521,1.6806
13.2826,504,1.6258
13.2868,492,1.5871
13.2909,500,1.6129
13.2951,515,1.6613
13.2993,517,1.6677
13.3034,498,1.6065
13.3076,491,1.5839
13.3118,507,1.6355
13.3159,521,1.6806
13.3201,520,1.6774
13.3243,503,1.6226
13.3285,501,1.6161
13.3326,524,1.6903
13.3368,540,1.7419
13.3410,532,1.7161
13.3451,515,1.6613
13.3493,518,1.6710
13.3536,542,1.7484
13.3578,554,1.7871
13.3621,543,1.7516
13.3663,529,1.7065
13.3705,532,1.7161
13.3746,548,1.7677
13.3788,547,1.7645
13.3830,524,1.6903
13.3871,508,1.6387
13.3913,511,1.6484
13.3954,519,1.6742
13.3996,516,1.6645
13.4038,497,1.6032
13.4080,493,1.5903
13.4121,514,1.6581
13.4163,527,1.7000
13.4205,519,1.6742
13.4246,497,1.6032
13.4288,493,1.5903
13.4330,511,1.6484
13.4371,516,1.6645
13.4413,498,1.6065
13.4455,471,1.5194
13.4496,464,1.4968
13.4538,484,1.5613
13.4580,515,1.6613
13.4621,559,1.8032
13.4663,629,2.0290
13.4705,736,2.3742
13.4747,889,2.8677
13.4788,999,3.2226
13.4830,999,3.2226
13.4872,1002,3.2323
13.4913,1000,3.2258
13.4955,998,3.2194
13.4997,907,2.9258
13.5038,708,2.2839
13.5080,550,1.7742
13.5122,474,1.5290
13.5164,457,1.4742
13.5205,454,1.4645
13.5247,445,1.4355
13.5289,453,1.4613
13.5330,479,1.5452
13.5372,494,1.5935
13.5414,485,1.5645
13.5455,467,1.5065
13.5497,467,1.5065
13.5539,488,1.5742
13.5580,496,1.6000
13.5622,480,1.5484
13.5664,467,1.5065
13.5706,474,1.5290
13.5747,495,1.5968
13.5789,497,1.6032
13.5831,478,1.5419
13.5872,470,1.5161
13.5914,482,1.5548
13.5956,497,1.6032
13.5997,498,1.6065
13.6039,481,1.5516
13.6081,474,1.5290
13.6122,493,1.5903
13.6164,508,1.6387
13.6205,503,1.6226
13.6247,487,1.5710
13.6289,488,1.5742
13.6330,507,1.6355
13.6372,519,1.6742
13.6413,514,1.6581
13.6456,499,1.6097
13.6498,500,1.6129
13.6540,523,1.6871
13.6583,533,1.7194
13.6626,519,1.6742
13.6669,510,1.6452
13.6712,528,1.7032
13.6754,550,1.7742
13.6797,554,1.7871
13.6840,538,1.7355
13.6883,537,1.7323
13.6925,561,1.8097
13.6968,575,1.8548
13.7011,572,1.8452
13.7054,558,1.8000
13.7096,562,1.8129
13.7139,586,1.8903
13.7182,595,1.9194
13.7225,580,1.8710
13.7268,571,1.8419
13.7310,580,1.8710
13.7353,597,1.9258
13.7397,598,1.9290
13.7440,580,1.8710
13.7484,575,1.8548
13.7526,590,1.9032
13.7569,597,1.9258
13.7613,580,1.8710
13.7656,556,1.7935
13.7699,550,1.7742
13.7742,561,1.8097
13.7785,554,1.7871
13.7828,525,1.6935
13.7872,501,1.6161
13.7915,502,1.6194
13.7958,511,1.6484
13.8001,502,1.6194
13.8045,474,1.5290
13.8088,462,1.4903
13.8131,478,1.5419
13.8175,488,1.5742
13.8218,476,1.5355
13.8261,461,1.4871
13.8305,465,1.5000
13.8348,487,1.5710
13.8391,490,1.5806
13.8434,468,1.5097
13.8478,460,1.4839
13.8522,479,1.5452
13.8565,497,1.6032
13.8608,494,1.5935
13.8651,476,1.5355
13.8694,478,1.5419
13.8738,501,1.6161
13.8781,512,1.6516
13.8824,496,1.6000
13.8866,483,1.5581
13.8909,492,1.5871
13.8952,513,1.6548
13.8995,516,1.6645
13.9038,496,1.6000
13.9081,488,1.5742
13.9124,504,1.6258
13.9167,516,1.6645
13.9210,509,1.6419
13.9253,489,1.5774
13.9296,489,1.5774
13.9339,510,1.6452
13.9382,519,1.6742
13.9425,504,1.6258
13.9467,486,1.5677
13.9510,492,1.5871
13.9554,510,1.6452
13.9597,509,1.6419
13.9640,488,1.5742
13.9684,481,1.5516
13.9727,500,1.6129
13.9771,511,1.6484
13.9814,501,1.6161
13.9857,481,1.5516
13.9901,481,1.5516
13.9944,502,1.6194
13.9987,508,1.6387
14.0030,490,1.5806
14.0074,480,1.5484
14.0117,492,1.5871
14.0160,509,1.6419
14.0203,505,1.6290
14.0247,485,1.5645
14.0290,482,1.5548
14.0333,503,1.6226
14.0377,513,1.6548
14.0420,501,1.6161
14.0463,485,1.5645
14.0507,488,1.5742
14.0550,509,1.6419
14.0594,513,1.6548
14.0638,492,1.5871
14.0681,481,1.5516
14.0724,497,1.6032
14.0767,515,1.6613
14.0810,510,1.6452
14.0853,491,1.5839
14.0896,486,1.5677
14.0939,503,1.6226
14.0982,513,1.6548
14.1025,500,1.6129
14.1068,487,1.5710
14.1111,495,1.5968
14.1154,516,1.6645
14.1196,524,1.6903
14.1239,509,1.6419
14.1282,500,1.6129
14.1325,510,1.6452
14.1368,524,1.6903
14.1411,519,1.6742
14.1454,500,1.6129
14.1497,502,1.6194
14.1540,523,1.6871
14.1583,525,1.6935
14.1626,502,1.6194
14.1669,484,1.5613
14.1713,490,1.5806
14.1756,509,1.6419
14.1800,515,1.6613
14.1843,507,1.6355
14.1886,506,1.6323
14.1930,524,1.6903
14.1973,532,1.7161
14.2016,517,1.6677
14.2059,504,1.6258
14.2103,514,1.6581
14.2146,545,1.7581
14.2189,550,1.7742
14.2232,523,1.6871
14.2276,501,1.6161
14.2319,502,1.6194
14.2362,513,1.6548
14.2406,512,1.6516
14.2449,495,1.5968
14.2492,493,1.5903
14.2535,517,1.6677
14.2579,523,1.6871
14.2622,502,1.6194
14.2666,486,1.5677
14.2710,497,1.6032
14.2753,520,1.6774
14.2797,518,1.6710
14.2840,484,1.5613
14.2883,462,1.4903
14.2925,473,1.5258
14.2968,497,1.6032
14.3011,528,1.7032
14.3054,578,1.8645
14.3097,665,2.1452
14.3140,806,2.6000
14.3183,945,3.0484
14.3226,998,3.2194
14.3269,1000,3.2258
14.3312,1000,3.2258
14.3355,997,3.2161
14.3398,933,3.0097
14.3440,761,2.4548
14.3483,618,1.9935
14.3526,532,1.7161
14.3569,486,1.5677
14.3612,455,1.4677
14.3655,435,1.4032
14.3699,440,1.4194
14.3742,472,1.5226
14.3786,491,1.5839
14.3829,478,1.5419
14.3872,468,1.5097
14.3915,478,1.5419
14.3959,496,1.6000
14.4002,494,1.5935
14.4045,476,1.5355
14.4088,472,1.5226
14.4132,495,1.5968
14.4175,512,1.6516
14.4218,504,1.6258
14.4262,484,1.5613
14.4305,485,1.5645
14.4348,510,1.6452
14.4391,519,1.6742
14.4435,507,1.6355
14.4478,505,1.6290
14.4521,523,1.6871
14.4564,537,1.7323
14.4608,528,1.7032
14.4651,501,1.6161
14.4694,506,1.6323
14.4738,539,1.7387
14.4781,552,1.7806
14.4825,530,1.7097
14.4867,509,1.6419
14.4910,515,1.6613
14.4953,541,1.7452
14.4996,553,1.7839
14.5039,540,1.7419
14.5082,535,1.7258
14.5125,555,1.7903
14.5168,576,1.8581
14.5211,578,1.8645
14.5254,561,1.8097
14.5302,566,1.8258
14.5345,598,1.9290
14.5388,612,1.9742
14.5431,596,1.9226
14.5474,587,1.8935
14.5517,597,1.9258
14.5560,625,2.0161
14.5604,630,2.0323
14.5646,609,1.9645
14.5689,609,1.9645
14.5732,633,2.0419
14.5775,639,2.0613
14.5819,616,1.9871
14.5862,590,1.9032
14.5905,585,1.8871
14.5949,603,1.9452
14.5992,604,1.9484
14.6035,582,1.8774
14.6079,563,1.8161
14.6122,567,1.8290
14.6165,572,1.8452
14.6209,559,1.8032
14.6252,528,1.7032
14.6295,514,1.6581
14.6339,525,1.6935
14.6382,528,1.7032
14.6426,509,1.6419
14.6469,487,1.5710
14.6512,488,1.5742
14.6555,503,1.6226
14.6599,504,1.6258
14.6642,487,1.5710
14.6685,482,1.5548
14.6730,499,1.6097
14.6773,509,1.6419
14.6816,504,1.6258
14.6859,488,1.5742
14.6902,483,1.5581
14.6945,503,1.6226
14.6988,516,1.6645
14.7031,507,1.6355
14.7074,499,1.6097
14.7116,510,1.6452
14.7159,530,1.7097
14.7202,529,1.7065
14.7245,503,1.6226
14.7288,495,1.5968
14.7331,515,1.6613
14.7374,530,1.7097
14.7417,522,1.6839
14.7460,504,1.6258
14.7503,505,1.6290
14.7546,530,1.7097
14.7589,535,1.7258
14.7632,518,1.6710
14.7674,503,1.6226
14.7717,511,1.6484
14.7760,528,1.7032
14.7804,525,1.6935
14.7848,499,1.6097
14.7891,490,1.5806
14.7934,509,1.6419
14.7977,521,1.6806
14.8021,510,1.6452
14.8064,493,1.5903
14.8107,493,1.5903
14.8150,511,1.6484
14.8194,515,1.6613
14.8238,496,1.6000
14.8281,486,1.5677
14.8325,500,1.6129
14.8369,516,1.6645
14.8412,507,1.6355
14.8455,484,1.5613
14.8499,481,1.5516
14.8542,502,1.6194
14.8585,510,1.6452
14.8628,496,1.6000
14.8672,485,1.5645
14.8715,493,1.5903
14.8758,512,1.6516
14.8801,512,1.6516
14.8844,490,1.5806
14.8887,480,1.5484
14.8930,494,1.5935
14.8973,507,1.6355
14.9016,500,1.6129
14.9059,481,1.5516
14.9102,480,1.5484
14.9145,503,1.6226
14.9188,511,1.6484
14.9231,499,1.6097
14.9273,484,1.5613
14.9316,488,1.5742
14.9359,508,1.6387
14.9402,510,1.6452
14.9445,492,1.5871
14.9488,483,1.5581
14.9531,500,1.6129
14.9574,512,1.6516
14.9617,504,1.6258
14.9660,487,1.5710
14.9703,487,1.5710
14.9746,508,1.6387
14.9789,515,1.6613
14.9832,497,1.6032
14.9875,485,1.5645
14.9919,493,1.5903
14.9962,510,1.6452
15.0005,512,1.6516
15.0048,498,1.6065
15.0097,499,1.6097
15.0152,520,1.6774
15.0197,525,1.6935
15.0242,507,1.6355
15.0287,495,1.5968
15.0331,506,1.6323
15.0376,518,1.6710
15.0421,509,1.6419
15.0464,497,1.6032
15.0507,506,1.6323
15.0550,532,1.7161
15.0593,541,1.7452
15.0636,521,1.6806
15.0678,503,1.6226
15.0722,504,1.6258
15.0764,515,1.6613
15.0807,509,1.6419
15.0850,486,1.5677
15.0893,485,1.5645
15.0935,509,1.6419
15.0978,524,1.6903
15.1020,514,1.6581
15.1063,486,1.5677
15.1106,483,1.5581
15.1148,496,1.6000
15.1191,489,1.5774
15.1233,460,1.4839
15.1276,440,1.4194
15.1318,443,1.4290
15.1361,479,1.5452
15.1403,531,1.7129
15.1445,587,1.8935
15.1488,676,2.1806
15.1531,827,2.6677
15.1573,980,3.1613
15.1615,1000,3.2258
15.1658,1001,3.2290
15.1700,1000,3.2258
15.1743,996,3.2129
15.1786,894,2.8839
15.1829,703,2.2677
15.1872,547,1.7645
15.1915,461,1.4871
15.1958,448,1.4452
15.2001,447,1.4419
15.2044,432,1.3935
15.2087,426,1.3742
15.2130,444,1.4323
15.2173,461,1.4871
15.2216,458,1.4774
15.2259,437,1.4097
15.2302,432,1.3935
15.2345,453,1.4613
15.2388,464,1.4968
15.2431,454,1.4645
15.2474,442,1.4258
15.2517,450,1.4516
15.2561,469,1.5129
15.2603,473,1.5258
15.2646,456,1.4710
15.2689,450,1.4516
15.2733,472,1.5226
15.2776,491,1.5839
15.2819,489,1.5774
15.2862,476,1.5355
15.2905,477,1.5387
15.2948,502,1.6194
15.2991,513,1.6548
15.3034,500,1.6129
15.3077,492,1.5871
15.3120,502,1.6194
15.3164,523,1.6871
15.3207,525,1.6935
15.3249,507,1.6355
15.3293,505,1.6290
15.3336,529,1.7065
15.3379,544,1.7548
15.3422,541,1.7452
15.3464,529,1.7065
15.3507,536,1.7290
15.3549,565,1.8226
15.3592,578,1.8645
15.3635,568,1.8323
15.3677,561,1.8097
15.3720,572,1.8452
15.3762,596,1.9226
15.3805,605,1.9516
15.3848,595,1.9194
15.3890,591,1.9065
15.3933,609,1.9645
15.3976,629,2.0290
15.4018,627,2.0226
15.4061,611,1.9710
15.4103,610,1.9677
15.4146,630,2.0323
15.4189,643,2.0742
15.4231,628,2.0258
15.4274,610,1.9677
15.4317,614,1.9806
15.4360,635,2.0484
15.4402,637,2.0548
15.4444,608,1.9613
15.4487,586,1.8903
15.4530,588,1.8968
15.4572,599,1.9323
15.4615,591,1.9065
15.4657,563,1.8161
15.4700,543,1.7516
15.4743,547,1.7645
15.4785,548,1.7677
15.4828,532,1.7161
15.4871,514,1.6581
15.4914,515,1.6613
15.4957,535,1.7258
15.5000,540,1.7419
15.5043,526,1.6968
15.5086,520,1.6774
15.5129,538,1.7355
15.5172,556,1.7935
15.5214,553,1.7839
15.5257,532,1.7161
15.5300,527,1.7000
15.5343,550,1.7742
15.5386,567,1.8290
15.5429,561,1.8097
15.5472,548,1.7677
15.5515,551,1.7774
15.5558,568,1.8323
15.5601,573,1.8484
15.5644,556,1.7935
15.5686,548,1.7677
15.5729,566,1.8258
15.5772,585,1.8871
15.5816,582,1.8774
15.5859,561,1.8097
15.5901,553,1.7839
15.5944,568,1.8323
15.5986,577,1.8613
15.6029,564,1.8194
15.6071,543,1.7516
15.6114,540,1.7419
15.6156,555,1.7903
15.6199,559,1.8032
15.6242,542,1.7484
15.6284,531,1.7129
15.6327,542,1.7484
15.6369,559,1.8032
15.6412,557,1.7968
15.6454,535,1.7258
15.6497,522,1.6839
15.6540,538,1.7355
15.6583,548,1.7677
15.6625,537,1.7323
15.6668,518,1.6710
15.6710,515,1.6613
15.6753,534,1.7226
15.6797,540,1.7419
15.6840,521,1.6806
15.6884,506,1.6323
15.6928,511,1.6484
15.6971,522,1.6839
15.7015,517,1.6677
15.7058,497,1.6032
15.7101,490,1.5806
15.7144,507,1.6355
15.7188,515,1.6613
15.7232,500,1.6129
15.7275,479,1.5452
15.7318,477,1.5387
15.7362,497,1.6032
15.7405,499,1.6097
15.7449,473,1.5258
15.7492,460,1.4839
15.7535,470,1.5161
15.7580,481,1.5516
15.7624,472,1.5226
15.7667,450,1.4516
15.7710,446,1.4387
15.7754,463,1.4935
15.7798,466,1.5032
15.7842,444,1.4323
15.7885,428,1.3806
15.7928,434,1.4000
15.7971,449,1.4484
15.8014,444,1.4323
15.8057,418,1.3484
15.8100,407,1.3129
15.8143,422,1.3613
15.8186,430,1.3871
15.8234,412,1.3290
15.8277,392,1.2645
15.8320,392,1.2645
15.8363,411,1.3258
15.8406,414,1.3355
15.8450,396,1.2774
15.8492,388,1.2516
15.8535,400,1.2903
15.8578,407,1.3129
15.8621,392,1.2645
15.8665,372,1.2000
15.8708,374,1.2065
15.8750,395,1.2742
15.8793,398,1.2839
15.8836,375,1.2097
15.8880,349,1.1258
15.8923,341,1.1000
15.8966,350,1.1290
15.9009,346,1.1161
15.9052,321,1.0355
15.9095,310,1.0000
15.9139,323,1.0419
15.9181,335,1.0806
15.9224,327,1.0548
15.9268,307,0.9903
15.9311,301,0.9710
15.9354,316,1.0194
15.9397,317,1.0226
15.9440,290,0.9355
15.9483,264,0.8516
15.9526,265,0.8548
15.9569,300,0.9677
15.9612,351,1.1323
15.9655,410,1.3226
15.9698,507,1.6355
15.9741,657,2.1194
15.9784,801,2.5839
15.9828,901,2.9065
15.9872,931,3.0032
15.9915,872,2.8129
15.9958,732,2.3613
16.0001,575,1.8548
16.0044,422,1.3613
16.0087,303,0.9774
16.0130,244,0.7871
16.0173,239,0.7710
16.0216,241,0.7774
16.0259,226,0.7290
16.0302,224,0.7226
16.0345,246,0.7935
16.0388,258,0.8323
16.0431,250,0.8065
16.0474,232,0.7484
16.0518,229,0.7387
16.0560,248,0.8000
16.0603,253,0.8161
16.0646,238,0.7677
16.0690,231,0.7452
16.0733,245,0.7903
16.0775,263,0.8484
16.0818,264,0.8516
16.0861,245,0.7903
16.0905,241,0.7774
16.0948,265,0.8548
16.0991,278,0.8968
16.1034,269,0.8677
16.1077,255,0.8226
16.1120,262,0.8452
16.1163,285,0.9194
16.1206,294,0.9484
16.1249,279,0.9000
16.1296,273,0.8806
16.1340,294,0.9484
16.1383,313,1.0097
16.1426,312,1.0065
16.1469,299,0.9645
16.1512,300,0.9677
16.1555,322,1.0387
16.1598,337,1.0871
16.1641,326,1.0516
16.1684,318,1.0258
16.1727,333,1.0742
16.1770,360,1.1613
16.1813,367,1.1839
16.1856,354,1.1419
16.1899,353,1.1387
16.1943,377,1.2161
16.1985,396,1.2774
16.2028,396,1.2774
16.2071,384,1.2387
16.2115,389,1.2548
16.2158,416,1.3419
16.2201,429,1.3839
16.2243,415,1.3387
16.2286,402,1.2968
16.2330,416,1.3419
16.2373,440,1.4194
16.2416,443,1.4290
16.2459,424,1.3677
16.2502,415,1.3387
16.2545,431,1.3903
16.2588,439,1.4161
16.2631,424,1.3677
16.2674,401,1.2935
16.2717,395,1.2742
16.2760,410,1.3226
16.2803,407,1.3129
16.2846,381,1.2290
16.2890,363,1.1710
16.2933,367,1.1839
16.2979,375,1.2097
16.3023,367,1.1839
16.3066,348,1.1226
16.3109,347,1.1194
16.3152,367,1.1839
16.3195,380,1.2258
16.3238,367,1.1839
16.3281,355,1.1452
16.3324,362,1.1677
16.3367,386,1.2452
16.3410,396,1.2774
16.3452,381,1.2290
16.3496,377,1.2161
16.3539,396,1.2774
16.3582,414,1.3355
16.3625,414,1.3355
16.3668,401,1.2935
16.3711,402,1.2968
16.3754,425,1.3710
16.3797,439,1.4161
16.3840,426,1.3742
16.3883,418,1.3484
16.3926,428,1.3806
16.3970,450,1.4516
16.4013,452,1.4581
16.4056,432,1.3935
16.4098,427,1.3774
16.4141,445,1.4355
16.4184,462,1.4903
16.4227,458,1.4774
16.4270,442,1.4258
16.4313,441,1.4226
16.4357,460,1.4839
16.4400,467,1.5065
16.4443,455,1.4677
16.4485,446,1.4387
16.4528,455,1.4677
16.4571,472,1.5226
16.4614,474,1.5290
16.4657,456,1.4710
16.4700,450,1.4516
16.4743,469,1.5129
16.4786,483,1.5581
16.4829,478,1.5419
16.4872,463,1.4935
16.4915,466,1.5032
16.4958,487,1.5710
16.5001,494,1.5935
16.5044,480,1.5484
16.5087,469,1.5129
16.5130,480,1.5484
16.5173,499,1.6097
16.5216,502,1.6194
16.5259,486,1.5677
16.5302,483,1.5581
16.5345,501,1.6161
16.5388,514,1.6581
16.5431,508,1.6387
16.5474,493,1.5903
16.5516,497,1.6032
16.5559,520,1.6774
16.5602,527,1.7000
16.5645,513,1.6548
16.5688,505,1.6290
16.5731,517,1.6677
16.5774,535,1.7258
16.5817,539,1.7387
16.5861,520,1.6774
16.5904,515,1.6613
16.5947,537,1.7323
16.5990,550,1.7742
16.6033,542,1.7484
16.6076,527,1.7000
16.6119,529,1.7065
16.6162,554,1.7871
16.6205,563,1.8161
16.6248,545,1.7581
16.6290,535,1.7258
16.6333,545,1.7581
16.6376,564,1.8194
16.6419,568,1.8323
16.6462,551,1.7774
16.6505,558,1.8000
16.6548,586,1.8903
16.6592,602,1.9419
16.6635,588,1.8968
16.6677,566,1.8258
16.6720,573,1.8484
16.6763,604,1.9484
16.6807,615,1.9839
16.6850,598,1.9290
16.6893,584,1.8839
16.6936,589,1.9000
16.6979,595,1.9194
16.7022,585,1.8871
16.7065,565,1.8226
16.7107,565,1.8226
16.7150,584,1.8839
16.7193,595,1.9194
16.7236,583,1.8806
16.7279,569,1.8355
16.7322,575,1.8548
16.7365,596,1.9226
16.7408,597,1.9258
16.7451,574,1.8516
16.7494,553,1.7839
16.7538,554,1.7871
16.7580,567,1.8290
16.7623,585,1.8871
16.7666,618,1.9935
16.7709,696,2.2452
16.7752,823,2.6548
16.7795,975,3.1452
16.7839,1000,3.2258
16.7882,1003,3.2355
16.7925,1004,3.2387
16.7968,1003,3.2355
16.8011,1003,3.2355
16.8054,997,3.2161
16.8097,871,2.8097
16.8140,706,2.2774
16.8182,601,1.9387
16.8226,556,1.7935
16.8269,533,1.7194
16.8312,539,1.7387
16.8355,566,1.8258
16.8398,581,1.8742
16.8441,568,1.8323
16.8484,552,1.7806
16.8527,557,1.7968
16.8570,577,1.8613
16.8612,582,1.8774
16.8656,565,1.8226
16.8698,555,1.7903
16.8742,574,1.8516
16.8786,591,1.9065
16.8829,588,1.8968
16.8872,572,1.8452
16.8916,570,1.8387
16.8959,592,1.9097
16.9002,601,1.9387
16.9045,586,1.8903
16.9088,577,1.8613
16.9131,588,1.8968
16.9173,610,1.9677
16.9216,615,1.9839
16.9259,594,1.9161
16.9302,589,1.9000
16.9345,609,1.9645
16.9388,624,2.0129
16.9431,618,1.9935
16.9474,602,1.9419
16.9517,602,1.9419
16.9560,628,2.0258
16.9603,640,2.0645
16.9646,626,2.0194
16.9689,616,1.9871
16.9732,627,2.0226
16.9775,648,2.0903
16.9818,655,2.1129
16.9861,640,2.0645
16.9904,637,2.0548
16.9947,657,2.1194
16.9989,673,2.1710
17.0032,671,2.1645
17.0075,658,2.1226
17.0118,663,2.1387
17.0161,687,2.2161
17.0204,697,2.2484
17.0247,682,2.2000
17.0290,670,2.1613
17.0333,679,2.1903
17.0376,699,2.2548
17.0419,700,2.2581
17.0463,684,2.2065
17.0506,677,2.1839
17.0548,693,2.2355
17.0591,705,2.2742
17.0634,690,2.2258
17.0677,660,2.1290
17.0720,651,2.1000
17.0763,663,2.1387
17.0806,659,2.1258
17.0849,631,2.0355
17.0892,606,1.9548
17.0935,610,1.9677
17.0978,618,1.9935
17.1021,609,1.9645
17.1064,585,1.8871
17.1107,575,1.8548
17.1150,588,1.8968
17.1193,600,1.9355
17.1236,589,1.9000
17.1279,569,1.8355
17.1322,571,1.8419
17.1365,592,1.9097
17.1407,602,1.9419
17.1451,586,1.8903
17.1494,579,1.8677
17.1536,593,1.9129
17.1579,609,1.9645
17.1622,606,1.9548
17.1665,585,1.8871
17.1708,577,1.8613
17.1751,599,1.9323
17.1794,613,1.9774
17.1837,601,1.9387
17.1880,585,1.8871
17.1923,588,1.8968
17.1967,606,1.9548
17.2009,610,1.9677
17.2052,592,1.9097
17.2096,577,1.8613
17.2139,588,1.8968
17.2182,602,1.9419
17.2225,599,1.9323
17.2267,578,1.8645
17.2311,571,1.8419
17.2354,592,1.9097
17.2396,602,1.9419
17.2439,589,1.9000
17.2482,569,1.8355
17.2525,570,1.8387
17.2568,589,1.9000
17.2611,590,1.9032
17.2654,568,1.8323
17.2697,559,1.8032
17.2740,571,1.8419
17.2783,586,1.8903
17.2826,584,1.8839
17.2869,565,1.8226
17.2912,559,1.8032
17.2955,574,1.8516
17.2998,585,1.8871
17.3041,573,1.8484
17.3084,556,1.7935
17.3127,561,1.8097
17.3170,580,1.8710
17.3213,585,1.8871
17.3256,567,1.8290
17.3299,555,1.7903
17.3342,567,1.8290
17.3385,582,1.8774
17.3427,579,1.8677
17.3470,559,1.8032
17.3513,557,1.7968
17.3556,577,1.8613
17.3599,586,1.8903
17.3642,572,1.8452
17.3685,558,1.8000
17.3728,564,1.8194
17.3771,582,1.8774
17.3814,584,1.8839
17.3857,564,1.8194
17.3900,556,1.7935
17.3943,573,1.8484
17.3986,586,1.8903
17.4029,582,1.8774
17.4072,563,1.8161
17.4115,564,1.8194
17.4158,588,1.8968
17.4201,608,1.9613
17.4244,598,1.9290
17.4287,583,1.8806
17.4329,589,1.9000
17.4372,612,1.9742
17.4415,620,2.0000
17.4459,605,1.9516
17.4502,600,1.9355
17.4545,614,1.9806
17.4588,621,2.0032
17.4631,610,1.9677
17.4674,586,1.8903
17.4716,573,1.8484
17.4759,580,1.8710
17.4803,582,1.8774
17.4845,563,1.8161
17.4888,547,1.7645
17.4931,554,1.7871
17.4974,575,1.8548
17.5017,576,1.8581
17.5060,557,1.7968
17.5103,546,1.7613
17.5146,561,1.8097
17.5189,572,1.8452
17.5232,561,1.8097
17.5275,533,1.7194
17.5318,521,1.6806
17.5361,531,1.7129
17.5404,548,1.7677
17.5447,572,1.8452
17.5490,630,2.0323
17.5533,732,2.3613
17.5576,881,2.8419
17.5619,998,3.2194
17.5661,1000,3.2258
17.5704,1003,3.2355
17.5747,1003,3.2355
17.5791,1001,3.2290
17.5834,995,3.2097
17.5876,865,2.7903
17.5920,679,2.1903
17.5963,570,1.8387
17.6006,522,1.6839
17.6049,495,1.5968
17.6092,489,1.5774
17.6135,503,1.6226
17.6178,528,1.7032
17.6221,530,1.7097
17.6264,505,1.6290
17.6307,497,1.6032
17.6350,514,1.6581
17.6393,525,1.6935
17.6436,516,1.6645
17.6479,499,1.6097
17.6522,501,1.6161
17.6565,524,1.6903
17.6608,530,1.7097
17.6651,515,1.6613
17.6693,502,1.6194
17.6736,514,1.6581
17.6779,533,1.7194
17.6822,530,1.7097
17.6865,512,1.6516
17.6908,510,1.6452
17.6951,532,1.7161
17.6994,547,1.7645
17.7038,538,1.7355
17.7081,524,1.6903
17.7124,526,1.6968
17.7166,550,1.7742
17.7210,561,1.8097
17.7252,547,1.7645
17.7295,537,1.7323
17.7338,551,1.7774
17.7381,571,1.8419
17.7424,571,1.8419
17.7467,556,1.7935
17.7510,556,1.7935
17.7554,578,1.8645
17.7597,593,1.9129
17.7640,586,1.8903
17.7682,573,1.8484
17.7725,581,1.8742
17.7768,604,1.9484
17.7811,615,1.9839
17.7854,599,1.9323
17.7897,591,1.9065
17.7943,610,1.9677
17.7986,630,2.0323
17.8029,629,2.0290
17.8072,613,1.9774
17.8115,610,1.9677
17.8158,632,2.0387
17.8201,642,2.0710
17.8245,630,2.0323
17.8288,614,1.9806
17.8331,614,1.9806
17.8374,633,2.0419
17.8418,630,2.0323
17.8461,603,1.9452
17.8504,587,1.8935
17.8547,593,1.9129
17.8590,597,1.9258
17.8634,581,1.8742
17.8677,552,1.7806
17.8720,540,1.7419
17.8763,553,1.7839
17.8806,554,1.7871
17.8849,531,1.7129
17.8892,512,1.6516
17.8935,516,1.6645
17.8978,532,1.7161
17.9026,533,1.7194
17.9068,511,1.6484
17.9111,506,1.6323
17.9154,527,1.7000
17.9197,539,1.7387
17.9240,529,1.7065
17.9282,515,1.6613
17.9325,519,1.6742
17.9368,541,1.7452
17.9411,547,1.7645
17.9454,530,1.7097
17.9497,519,1.6742
17.9539,528,1.7032
17.9582,546,1.7613
17.9625,545,1.7581
17.9668,525,1.6935
17.9711,518,1.6710
17.9753,535,1.7258
17.9797,547,1.7645
17.9840,534,1.7226
17.9883,514,1.6581
17.9926,514,1.6581
17.9969,533,1.7194
18.0012,535,1.7258
18.0055,516,1.6645
18.0098,505,1.6290
18.0141,516,1.6645
18.0184,528,1.7032
18.0226,525,1.6935
18.0270,505,1.6290
18.0312,500,1.6129
18.0355,519,1.6742
18.0398,527,1.7000
18.0441,513,1.6548
18.0484,495,1.5968
18.0527,498,1.6065
18.0570,518,1.6710
18.0617,522,1.6839
18.0660,503,1.6226
18.0703,495,1.5968
18.0746,511,1.6484
18.0789,524,1.6903
18.0832,517,1.6677
18.0875,495,1.5968
18.0918,492,1.5871
18.0961,513,1.6548
18.1004,522,1.6839
18.1047,510,1.6452
18.1090,494,1.5935
18.1133,497,1.6032
18.1176,517,1.6677
18.1219,520,1.6774
18.1262,500,1.6129
18.1305,490,1.5806
18.1348,506,1.6323
18.1391,522,1.6839
18.1434,522,1.6839
18.1477,511,1.6484
18.1520,516,1.6645
18.1563,537,1.7323
18.1606,545,1.7581
18.1649,534,1.7226
18.1692,525,1.6935
18.1735,537,1.7323
18.1778,562,1.8129
18.1821,563,1.8161
18.1863,536,1.7290
18.1907,521,1.6806
18.1950,525,1.6935
18.1992,531,1.7129
18.2035,519,1.6742
18.2078,492,1.5871
18.2122,487,1.5710
18.2164,504,1.6258
18.2207,510,1.6452
18.2250,494,1.5935
18.2293,482,1.5548
18.2336,490,1.5806
18.2379,508,1.6387
18.2422,507,1.6355
18.2465,485,1.5645
18.2508,473,1.5258
18.2551,482,1.5548
18.2594,483,1.5581
18.2637,464,1.4968
18.2680,441,1.4226
18.2723,465,1.5000
18.2766,547,1.7645
18.2809,645,2.0806
18.2852,748,2.4129
18.2895,880,2.8387
18.2939,996,3.2129
18.2982,1002,3.2323
18.3025,1003,3.2355
18.3068,1000,3.2258
18.3111,950,3.0645
18.3154,789,2.5452
18.3197,637,2.0548
18.3239,512,1.6516
18.3282,431,1.3903
18.3325,415,1.3387
18.3368,441,1.4226
18.3411,457,1.4742
18.3454,446,1.4387
18.3497,435,1.4032
18.3540,444,1.4323
18.3583,458,1.4774
18.3626,456,1.4710
18.3669,433,1.3968
18.3713,424,1.3677
18.3756,443,1.4290
18.3799,456,1.4710
18.3841,448,1.4452
18.3884,432,1.3935
18.3927,434,1.4000
18.3970,455,1.4677
18.4013,464,1.4968
18.4056,451,1.4548
18.4099,439,1.4161
18.4142,451,1.4548
18.4185,469,1.5129
18.4228,473,1.5258
18.4271,454,1.4645
18.4314,449,1.4484
18.4357,468,1.5097
18.4400,482,1.5548
18.4443,477,1.5387
18.4486,462,1.4903
18.4529,467,1.5065
18.4572,492,1.5871
18.4615,499,1.6097
18.4658,481,1.5516
18.4701,473,1.5258
18.4744,488,1.5742
18.4787,507,1.6355
18.4830,511,1.6484
18.4873,493,1.5903
18.4916,491,1.5839
18.4959,513,1.6548
18.5002,528,1.7032
18.5045,520,1.6774
18.5088,507,1.6355
18.5133,515,1.6613
18.5178,542,1.7484
18.5221,551,1.7774
18.5264,535,1.7258
18.5307,527,1.7000
18.5350,544,1.7548
18.5393,561,1.8097
18.5436,559,1.8032
18.5479,538,1.7355
18.5521,534,1.7226
18.5565,555,1.7903
18.5608,562,1.8129
18.5650,548,1.7677
18.5693,528,1.7032
18.5736,526,1.6968
18.5781,536,1.7290
18.5824,530,1.7097
18.5866,500,1.6129
18.5909,484,1.5613
18.5952,491,1.5839
18.5995,496,1.6000
18.6039,479,1.5452
18.6082,452,1.4581
18.6125,444,1.4323
18.6168,460,1.4839
18.6211,466,1.5032
18.6254,450,1.4516
18.6297,436,1.4065
18.6339,442,1.4258
18.6382,462,1.4903
18.6425,463,1.4935
18.6468,442,1.4258
18.6511,435,1.4032
18.6554,455,1.4677
18.6597,470,1.5161
18.6640,461,1.4871
18.6683,442,1.4258
18.6726,442,1.4258
18.6769,465,1.5000
18.6813,472,1.5226
18.6856,453,1.4613
18.6899,439,1.4161
18.6941,446,1.4387
18.6984,463,1.4935
18.7027,462,1.4903
18.7071,440,1.4194
18.7114,432,1.3935
18.7157,451,1.4548
18.7200,461,1.4871
18.7243,449,1.4484
18.7286,428,1.3806
18.7328,425,1.3710
18.7371,444,1.4323
18.7414,451,1.4548
18.7457,433,1.3968
18.7500,421,1.3581
18.7544,429,1.3839
18.7587,447,1.4419
18.7630,446,1.4387
18.7672,425,1.3710
18.7715,418,1.3484
18.7758,434,1.4000
18.7802,447,1.4419
18.7845,438,1.4129
18.7887,419,1.3516
18.7930,418,1.3484
18.7973,440,1.4194
18.8016,447,1.4419
18.8059,428,1.3806
18.8102,418,1.3484
18.8145,429,1.3839
18.8188,445,1.4355
18.8231,444,1.4323
18.8274,423,1.3645
18.8317,420,1.3548
18.8360,441,1.4226
18.8404,453,1.4613
18.8446,441,1.4226
18.8489,421,1.3581
18.8532,423,1.3645
18.8575,444,1.4323
18.8618,448,1.4452
18.8661,434,1.4000
18.8704,423,1.3645
18.8747,437,1.4097
18.8790,458,1.4774
18.8833,462,1.4903
18.8876,450,1.4516
18.8919,449,1.4484
18.8962,468,1.5097
18.9005,481,1.5516
18.9048,478,1.5419
18.9091,471,1.5194
18.9134,482,1.5548
18.9177,505,1.6290
18.9220,502,1.6194
18.9263,474,1.5290
18.9306,453,1.4613
18.9349,454,1.4645
18.9392,462,1.4903
18.9435,452,1.4581
18.9478,429,1.3839
18.9521,424,1.3677
18.9564,444,1.4323
18.9607,455,1.4677
18.9650,442,1.4258
18.9693,428,1.3806
18.9736,435,1.4032
18.9779,453,1.4613
18.9822,457,1.4742
18.9865,434,1.4000
18.9908,421,1.3581
18.9951,427,1.3774
18.9994,434,1.4000
19.0037,430,1.3871
19.0080,440,1.4194
19.0123,502,1.6194
19.0166,609,1.9645
19.0209,743,2.3968
19.0252,858,2.7677
19.0295,949,3.0613
19.0338,998,3.2194
19.0381,997,3.2161
19.0424,943,3.0419
19.0467,786,2.5355
19.0510,650,2.0968
19.0553,567,1.8290
19.0596,502,1.6194
19.0639,430,1.3871
19.0682,377,1.2161
19.0725,371,1.1968
19.0768,399,1.2871
19.0811,418,1.3484
19.0854,412,1.3290
19.0897,402,1.2968
19.0940,409,1.3194
19.0983,428,1.3806
19.1025,432,1.3935
19.1069,413,1.3323
19.1112,406,1.3097
19.1155,423,1.3645
19.1198,439,1.4161
19.1240,433,1.3968
19.1283,414,1.3355
19.1326,415,1.3387
19.1369,439,1.4161
19.1412,449,1.4484
19.1456,435,1.4032
19.1499,424,1.3677
19.1542,435,1.4032
19.1585,459,1.4806
19.1628,463,1.4935
19.1671,445,1.4355
19.1714,438,1.4129
19.1757,459,1.4806
19.1800,476,1.5355
19.1842,472,1.5226
19.1886,454,1.4645
19.1928,456,1.4710
19.1971,483,1.5581
19.2014,496,1.6000
19.2057,482,1.5548
19.2100,472,1.5226
19.2143,482,1.5548
19.2186,504,1.6258
19.2229,509,1.6419
19.2273,494,1.5935
19.2316,494,1.5935
19.2359,517,1.6677
19.2401,535,1.7258
19.2444,529,1.7065
19.2487,517,1.6677
19.2530,521,1.6806
19.2574,545,1.7581
19.2617,556,1.7935
19.2660,542,1.7484
19.2703,532,1.7161
19.2746,546,1.7613
19.2789,568,1.8323
19.2832,569,1.8355
19.2875,550,1.7742
19.2918,543,1.7516
19.2961,561,1.8097
19.3004,574,1.8516
19.3046,560,1.8065
19.3090,535,1.7258
19.3134,530,1.7097
19.3177,545,1.7581
19.3220,540,1.7419
19.3264,513,1.6548
19.3307,493,1.5903
19.3350,498,1.6065
19.3394,506,1.6323
19.3437,496,1.6000
19.3481,471,1.5194
19.3524,464,1.4968
19.3568,483,1.5581
19.3611,492,1.5871
19.3654,478,1.5419
19.3698,463,1.4935
19.3742,472,1.5226
19.3785,491,1.5839
19.3828,493,1.5903
19.3871,476,1.5355
19.3915,470,1.5161
19.3958,488,1.5742
19.4002,499,1.6097
19.4045,491,1.5839
19.4089,473,1.5258
19.4132,477,1.5387
19.4175,499,1.6097
19.4218,507,1.6355
19.4261,490,1.5806
19.4304,476,1.5355
19.4347,485,1.5645
19.4390,504,1.6258
19.4433,503,1.6226
19.4476,482,1.5548
19.4519,474,1.5290
19.4562,492,1.5871
19.4605,503,1.6226
19.4648,492,1.5871
19.4691,472,1.5226
19.4734,471,1.5194
19.4777,492,1.5871
19.4820,498,1.6065
19.4863,481,1.5516
19.4906,469,1.5129
19.4949,478,1.5419
19.4991,494,1.5935
19.5034,491,1.5839
19.5077,470,1.5161
19.5120,463,1.4935
19.5163,480,1.5484
19.5206,492,1.5871
19.5249,484,1.5613
19.5292,466,1.5032
19.5335,466,1.5032
19.5378,489,1.5774
19.5421,495,1.5968
19.5464,475,1.5323
19.5507,465,1.5000
19.5550,477,1.5387
19.5593,493,1.5903
19.5636,493,1.5903
19.5679,473,1.5258
19.5722,468,1.5097
19.5765,489,1.5774
19.5808,499,1.6097
19.5851,487,1.5710
19.5894,470,1.5161
19.5937,476,1.5355
19.5980,500,1.6129
19.6023,511,1.6484
19.6066,498,1.6065
19.6109,495,1.5968
19.6153,513,1.6548
19.6196,529,1.7065
19.6239,530,1.7097
19.6283,513,1.6548
19.6326,516,1.6645
19.6369,544,1.7548
19.6412,555,1.7903
19.6456,535,1.7258
19.6499,512,1.6516
19.6542,509,1.6419
19.6586,519,1.6742
19.6629,512,1.6516
19.6672,484,1.5613
19.6716,470,1.5161
19.6759,484,1.5613
19.6803,499,1.6097
19.6846,492,1.5871
19.6889,476,1.5355
19.6932,475,1.5323
19.6976,494,1.5935
19.7019,501,1.6161
19.7064,480,1.5484
19.7107,467,1.5065
19.7150,471,1.5194
19.7193,479,1.5452
19.7236,468,1.5097
19.7279,443,1.4290
19.7322,461,1.4871
19.7365,539,1.7387
19.7408,633,2.0419
19.7451,738,2.3806
19.7494,867,2.7968
19.7537,993,3.2032
19.7580,1002,3.2323
19.7623,1002,3.2323
19.7666,999,3.2226
19.7709,984,3.1742
19.7752,838,2.7032
19.7795,675,2.1774
19.7838,542,1.7484
19.7881,444,1.4323
19.7924,417,1.3452
19.7967,441,1.4226
19.8010,461,1.4871
19.8053,456,1.4710
19.8096,442,1.4258
19.8139,442,1.4258
19.8182,460,1.4839
19.8225,464,1.4968
19.8271,445,1.4355
19.8315,435,1.4032
19.8358,451,1.4548
19.8402,469,1.5129
19.8444,464,1.4968
19.8487,446,1.4387
19.8530,448,1.4452
19.8573,470,1.5161
19.8617,479,1.5452
19.8660,465,1.5000
19.8703,452,1.4581
19.8746,464,1.4968
19.8789,485,1.5645
19.8832,491,1.5839
19.8875,472,1.5226
19.8918,462,1.4903
19.8961,484,1.5613
19.9004,498,1.6065
19.9047,494,1.5935
19.9090,478,1.5419
19.9133,480,1.5484
19.9176,503,1.6226
19.9219,514,1.6581
19.9261,502,1.6194
19.9304,490,1.5806
19.9347,503,1.6226
19.9390,527,1.7000
19.9433,533,1.7194
19.9476,516,1.6645
19.9519,509,1.6419
19.9562,530,1.7097
19.9605,549,1.7710
19.9648,545,1.7581
19.9691,530,1.7097
19.9734,535,1.7258
19.9777,560,1.8065
19.9821,569,1.8355
19.9864,554,1.7871
19.9906,544,1.7548
19.9949,554,1.7871
19.9992,575,1.8548
20.0035,577,1.8613
20.0079,558,1.8000
20.0122,554,1.7871
20.0191,579,1.8677
20.0237,577,1.8613
20.0282,554,1.7871
20.0326,543,1.7516
20.0371,556,1.7935
20.0416,558,1.8000
20.0460,536,1.7290
20.0504,514,1.6581
20.0547,512,1.6516
20.0594,523,1.6871
20.0637,515,1.6613
20.0681,489,1.5774
20.0724,477,1.5387
20.0767,493,1.5903
20.0813,502,1.6194
20.0856,487,1.5710
20.0900,469,1.5129
20.0942,474,1.5290
20.0985,497,1.6032
20.1028,503,1.6226
20.1072,487,1.5710
20.1115,477,1.5387
20.1158,491,1.5839
20.1201,509,1.6419
20.1243,506,1.6323
20.1286,486,1.5677
20.1329,482,1.5548
20.1372,502,1.6194
20.1414,515,1.6613
20.1457,501,1.6161
20.1500,484,1.5613
20.1543,488,1.5742
20.1585,509,1.6419
20.1628,513,1.6548
20.1679,490,1.5806
20.1721,481,1.5516
20.1764,495,1.5968
20.1807,507,1.6355
20.1849,500,1.6129
20.1892,481,1.5516
20.1935,479,1.5452
20.1978,499,1.6097
20.2020,505,1.6290
20.2063,486,1.5677
20.2109,470,1.5161
20.2152,480,1.5484
20.2195,497,1.6032
20.2238,498,1.6065
20.2280,475,1.5323
20.2324,468,1.5097
20.2366,486,1.5677
20.2409,496,1.6000
20.2457,482,1.5548
20.2500,467,1.5065
20.2543,470,1.5161
20.2585,492,1.5871
20.2628,495,1.5968
20.2671,476,1.5355
20.2714,463,1.4935
20.2757,476,1.5355
20.2800,492,1.5871
20.2842,492,1.5871
20.2885,474,1.5290
20.2928,469,1.5129
20.2970,486,1.5677
20.3013,498,1.6065
20.3055,487,1.5710
20.3098,472,1.5226
20.3141,475,1.5323
20.3184,495,1.5968
20.3227,501,1.6161
20.3269,483,1.5581
20.3317,472,1.5226
20.3360,486,1.5677
20.3403,502,1.6194
20.3445,498,1.6065
20.3488,477,1.5387
20.3531,475,1.5323
20.3574,499,1.6097
20.3621,517,1.6677
20.3663,511,1.6484
20.3706,504,1.6258
20.3749,509,1.6419
20.3792,528,1.7032
20.3835,536,1.7290
20.3877,524,1.6903
20.3920,523,1.6871
20.3963,541,1.7452
20.4005,549,1.7710
20.4048,535,1.7258
20.4093,510,1.6452
20.4136,500,1.6129
20.4179,510,1.6452
20.4221,508,1.6387
20.4264,488,1.5742
20.4307,473,1.5258
20.4350,479,1.5452
20.4392,498,1.6065
20.4435,500,1.6129
20.4478,481,1.5516
20.4520,473,1.5258
20.4563,489,1.5774
20.4606,502,1.6194
20.4649,494,1.5935
20.4692,468,1.5097
20.4734,455,1.4677
20.4777,465,1.5000
20.4820,467,1.5065
20.4863,462,1.4903
20.4909,496,1.6000
20.4952,580,1.8710
20.4994,698,2.2516
20.5037,834,2.6903
20.5080,956,3.0839
20.5123,1000,3.2258
20.5166,1001,3.2290
20.5209,1002,3.2323
20.5252,996,3.2129
20.5294,868,2.8000
20.5337,686,2.2129
20.5380,561,1.8097
20.5423,479,1.5452
20.5465,433,1.3968
20.5508,420,1.3548
20.5550,434,1.4000
20.5593,456,1.4710
20.5636,459,1.4806
20.5679,438,1.4129
20.5725,428,1.3806
20.5768,446,1.4387
20.5811,459,1.4806
20.5853,448,1.4452
20.5896,428,1.3806
20.5939,428,1.3806
20.5982,453,1.4613
20.6024,466,1.5032
20.6067,452,1.4581
20.6109,440,1.4194
20.6152,449,1.4484
20.6195,468,1.5097
20.6238,471,1.5194
20.6281,454,1.4645
20.6323,448,1.4452
20.6366,465,1.5000
20.6409,482,1.5548
20.6451,479,1.5452
20.6494,462,1.4903
20.6536,465,1.5000
20.6584,489,1.5774
20.6627,497,1.6032
20.6669,484,1.5613
20.6712,473,1.5258
20.6755,486,1.5677
20.6798,507,1.6355
20.6841,510,1.6452
20.6883,493,1.5903
20.6926,492,1.5871
20.6969,512,1.6516
20.7012,529,1.7065
20.7054,524,1.6903
20.7097,507,1.6355
20.7141,511,1.6484
20.7184,536,1.7290
20.7228,546,1.7613
20.7271,533,1.7194
20.7313,524,1.6903
20.7356,537,1.7323
20.7400,559,1.8032
20.7443,560,1.8065
20.7486,540,1.7419
20.7529,534,1.7226
20.7572,553,1.7839
20.7615,568,1.8323
20.7658,559,1.8032
20.7701,540,1.7419
20.7744,539,1.7387
20.7787,559,1.8032
20.7830,563,1.8161
20.7873,542,1.7484
20.7916,523,1.6871
20.7958,526,1.6968
20.8001,535,1.7258
20.8044,526,1.6968
20.8087,498,1.6065
20.8130,485,1.5645
20.8173,498,1.6065
20.8216,503,1.6226
20.8259,486,1.5677
20.8302,462,1.4903
20.8345,458,1.4774
20.8388,474,1.5290
20.8431,395,1.2742
20.8474,383,1.2355
20.8517,418,1.3484
20.8560,459,1.4806
20.8603,488,1.5742
20.8646,488,1.5742
20.8689,468,1.5097
20.8732,464,1.4968
20.8775,485,1.5645
20.8818,497,1.6032
20.8861,487,1.5710
20.8904,471,1.5194
20.8947,473,1.5258
20.8989,493,1.5903
20.9033,498,1.6065
20.9075,482,1.5548
20.9118,470,1.5161
20.9161,481,1.5516
20.9204,496,1.6000
20.9248,492,1.5871
20.9291,471,1.5194
20.9334,466,1.5032
20.9378,485,1.5645
20.9421,492,1.5871
20.9465,475,1.5323
20.9508,457,1.4742
20.9551,464,1.4968
20.9595,485,1.5645
20.9639,484,1.5613
20.9682,462,1.4903
20.9725,450,1.4516
20.9769,467,1.5065
20.9812,479,1.5452
20.9855,472,1.5226
20.9899,452,1.4581
20.9942,453,1.4613
20.9985,474,1.5290
21.0028,481,1.5516
21.0072,461,1.4871
21.0115,447,1.4419
21.0160,458,1.4774
21.0204,475,1.5323
21.0247,474,1.5290
21.0290,453,1.4613
21.0333,446,1.4387
21.0375,465,1.5000
21.0418,476,1.5355
21.0461,467,1.5065
21.0504,452,1.4581
21.0547,452,1.4581
21.0590,471,1.5194
21.0633,479,1.5452
21.0676,460,1.4839
21.0719,449,1.4484
21.0762,463,1.4935
21.0805,481,1.5516
21.0848,478,1.5419
21.0891,456,1.4710
21.0934,454,1.4645
21.0977,472,1.5226
21.1020,482,1.5548
21.1063,472,1.5226
21.1106,457,1.4742
21.1149,460,1.4839
21.1191,482,1.5548
21.1234,488,1.5742
21.1278,467,1.5065
21.1321,455,1.4677
21.1363,470,1.5161
21.1406,487,1.5710
21.1449,487,1.5710
21.1492,472,1.5226
21.1535,474,1.5290
21.1578,499,1.6097
21.1621,511,1.6484
21.1664,499,1.6097
21.1707,486,1.5677
21.1750,498,1.6065
21.1793,528,1.7032
21.1836,536,1.7290
21.1879,513,1.6548
21.1922,496,1.6000
21.1965,505,1.6290
21.2008,512,1.6516
21.2051,500,1.6129
21.2094,470,1.5161
21.2137,457,1.4742
21.2180,476,1.5355
21.2223,486,1.5677
21.2267,474,1.5290
21.2310,458,1.4774
21.2354,465,1.5000
21.2397,486,1.5677
21.2440,487,1.5710
21.2483,466,1.5032
21.2527,456,1.4710
21.2570,469,1.5129
21.2613,474,1.5290
21.2657,455,1.4677
21.2701,428,1.3806
21.2744,435,1.4032
21.2787,498,1.6065
21.2831,580,1.8710
21.2874,659,2.1258
21.2918,782,2.5226
21.2961,937,3.0226
21.3004,1000,3.2258
21.3047,1000,3.2258
21.3091,999,3.2226
21.3134,993,3.2032
21.3178,865,2.7903
21.3222,695,2.2419
21.3266,546,1.7613
21.3309,443,1.4290
21.3352,415,1.3387
21.3395,436,1.4065
21.3438,448,1.4452
21.3481,433,1.3968
21.3524,427,1.3774
21.3567,439,1.4161
21.3610,452,1.4581
21.3653,448,1.4452
21.3695,426,1.3742
21.3739,422,1.3613
21.3782,444,1.4323
21.3825,454,1.4645
21.3868,441,1.4226
21.3911,427,1.3774
21.3954,437,1.4097
21.3997,459,1.4806
21.4040,461,1.4871
21.4083,443,1.4290
21.4127,437,1.4097
21.4169,455,1.4677
21.4212,474,1.5290
21.4255,471,1.5194
21.4298,454,1.4645
21.4341,455,1.4677
21.4384,479,1.5452
21.4427,490,1.5806
21.4470,477,1.5387
21.4513,463,1.4935
21.4556,473,1.5258
21.4599,495,1.5968
21.4642,499,1.6097
21.4685,482,1.5548
21.4727,480,1.5484
21.4771,498,1.6065
21.4814,515,1.6613
21.4857,513,1.6548
21.4900,498,1.6065
21.4943,501,1.6161
21.4986,527,1.7000
21.5029,537,1.7323
21.5072,524,1.6903
21.5115,517,1.6677
21.5158,527,1.7000
21.5201,551,1.7774
21.5244,555,1.7903
21.5287,534,1.7226
21.5330,527,1.7000
21.5374,547,1.7645
21.5417,564,1.8194
21.5460,558,1.8000
21.5503,540,1.7419
21.5547,541,1.7452
21.5590,561,1.8097
21.5633,568,1.8323
21.5677,551,1.7774
21.5720,537,1.7323
21.5765,546,1.7613
21.5809,556,1.7935
21.5852,548,1.7677
21.5895,520,1.6774
21.5939,509,1.6419
21.5986,521,1.6806
21.6030,521,1.6806
21.6073,496,1.6000
21.6117,475,1.5323
21.6160,479,1.5452
21.6203,494,1.5935
21.6247,490,1.5806
21.6290,468,1.5097
21.6333,459,1.4806
21.6376,476,1.5355
21.6419,491,1.5839
21.6462,485,1.5645
21.6505,468,1.5097
21.6548,469,1.5129
21.6591,494,1.5935
21.6634,504,1.6258
21.6677,487,1.5710
21.6719,472,1.5226
21.6763,487,1.5710
21.6806,508,1.6387
21.6849,508,1.6387
21.6892,485,1.5645
21.6935,477,1.5387
21.6977,494,1.5935
21.7021,506,1.6323
21.7063,497,1.6032
21.7106,482,1.5548
21.7149,482,1.5548
21.7192,503,1.6226
21.7235,507,1.6355
21.7278,486,1.5677
21.7321,473,1.5258
21.7364,484,1.5613
21.7407,499,1.6097
21.7450,496,1.6000
21.7493,477,1.5387
21.7536,471,1.5194
21.7579,487,1.5710
21.7622,495,1.5968
21.7665,483,1.5581
21.7708,465,1.5000
21.7751,469,1.5129
21.7794,491,1.5839
21.7838,496,1.6000
21.7881,477,1.5387
21.7924,465,1.5000
21.7967,477,1.5387
21.8010,491,1.5839
21.8053,488,1.5742
21.8095,469,1.5129
21.8139,465,1.5000
21.8182,484,1.5613
21.8225,495,1.5968
21.8268,484,1.5613
21.8311,468,1.5097
21.8354,471,1.5194
21.8396,493,1.5903
21.8439,498,1.6065
21.8482,479,1.5452
21.8525,469,1.5129
21.8568,484,1.5613
21.8612,499,1.6097
21.8655,492,1.5871
21.8698,475,1.5323
21.8740,472,1.5226
21.8784,492,1.5871
21.8827,505,1.6290
21.8870,492,1.5871
21.8913,477,1.5387
21.8955,481,1.5516
21.8998,503,1.6226
21.9041,506,1.6323
21.9084,487,1.5710
21.9127,477,1.5387
21.9170,491,1.5839
21.9214,507,1.6355
21.9257,505,1.6290
21.9300,486,1.5677
21.9343,485,1.5645
21.9386,506,1.6323
21.9429,515,1.6613
21.9472,505,1.6290
21.9514,499,1.6097
21.9557,512,1.6516
21.9600,533,1.7194
21.9643,533,1.7194
21.9685,509,1.6419
21.9728,499,1.6097
21.9771,524,1.6903
21.9814,548,1.7677
21.9857,542,1.7484
21.9899,515,1.6613
21.9942,500,1.6129
21.9984,511,1.6484
22.0027,516,1.6645
22.0070,502,1.6194
22.0113,484,1.5613
22.0155,485,1.5645
22.0199,507,1.6355
22.0242,513,1.6548
22.0285,497,1.6032
22.0328,489,1.5774
22.0371,502,1.6194
22.0414,516,1.6645
22.0457,506,1.6323
22.0500,477,1.5387
22.0543,462,1.4903
22.0585,473,1.5258
22.0628,487,1.5710
22.0671,511,1.6484
22.0714,570,1.8387
22.0757,674,2.1742
22.0801,826,2.6645
22.0843,972,3.1355
22.0887,1000,3.2258
22.0930,1002,3.2323
22.0972,1002,3.2323
22.1015,998,3.2194
22.1059,921,2.9710
22.1102,734,2.3677
22.1145,584,1.8839
22.1188,506,1.6323
22.1232,470,1.5161
22.1276,451,1.4548
22.1319,444,1.4323
22.1363,457,1.4742
22.1406,481,1.5516
22.1449,481,1.5516
22.1492,459,1.4806
22.1536,449,1.4484
22.1579,465,1.5000
22.1622,477,1.5387
22.1666,470,1.5161
22.1710,454,1.4645
22.1753,459,1.4806
22.1797,483,1.5581
22.1840,487,1.5710
22.1883,468,1.5097
22.1927,460,1.4839
22.1970,475,1.5323
22.2013,493,1.5903
22.2056,490,1.5806
22.2100,473,1.5258
22.2143,472,1.5226
22.2186,495,1.5968
22.2230,507,1.6355
22.2273,495,1.5968
22.2316,479,1.5452
22.2359,487,1.5710
22.2402,512,1.6516
22.2445,518,1.6710
22.2489,500,1.6129
22.2532,491,1.5839
22.2575,508,1.6387
22.2617,528,1.7032
22.2660,525,1.6935
22.2703,508,1.6387
22.2746,512,1.6516
22.2790,536,1.7290
22.2833,548,1.7677
22.2876,536,1.7290
22.2919,526,1.6968
22.2962,537,1.7323
22.3005,561,1.8097
22.3048,566,1.8258
22.3091,548,1.7677
22.3134,540,1.7419
22.3176,560,1.8065
22.3219,577,1.8613
22.3262,575,1.8548
22.3306,558,1.8000
22.3349,557,1.7968
22.3391,578,1.8645
22.3434,584,1.8839
22.3477,570,1.8387
22.3520,556,1.7935
22.3563,563,1.8161
22.3606,581,1.8742
22.3649,577,1.8613
22.3692,549,1.7710
22.3735,533,1.7194
22.3778,538,1.7355
22.3821,544,1.7548
22.3864,529,1.7065
22.3907,502,1.6194
22.3950,492,1.5871
22.3993,505,1.6290
22.4036,509,1.6419
22.4079,489,1.5774
22.4122,474,1.5290
22.4165,481,1.5516
22.4208,498,1.6065
22.4251,497,1.6032
22.4294,476,1.5355
22.4338,471,1.5194
22.4381,487,1.5710
22.4424,501,1.6161
22.4467,494,1.5935
22.4510,478,1.5419
22.4553,481,1.5516
22.4595,504,1.6258
22.4639,510,1.6452
22.4682,493,1.5903
22.4725,477,1.5387
22.4768,486,1.5677
22.4811,505,1.6290
22.4854,503,1.6226
22.4897,484,1.5613
22.4940,478,1.5419
22.4983,494,1.5935
22.5026,504,1.6258
22.5068,493,1.5903
22.5111,473,1.5258
22.5154,474,1.5290
22.5197,493,1.5903
22.5240,499,1.6097
22.5283,477,1.5387
22.5326,464,1.4968
22.5369,474,1.5290
22.5412,492,1.5871
22.5455,492,1.5871
22.5498,470,1.5161
22.5542,464,1.4968
22.5584,482,1.5548
22.5627,494,1.5935
22.5670,480,1.5484
22.5713,459,1.4806
22.5756,463,1.4935
22.5799,485,1.5645
22.5842,488,1.5742
22.5885,470,1.5161
22.5928,458,1.4774
22.5971,470,1.5161
22.6014,484,1.5613
22.6057,484,1.5613
22.6100,464,1.4968
22.6143,458,1.4774
22.6186,478,1.5419
22.6229,487,1.5710
22.6272,477,1.5387
22.6315,459,1.4806
22.6358,462,1.4903
22.6401,485,1.5645
22.6444,493,1.5903
22.6487,477,1.5387
22.6529,466,1.5032
22.6573,474,1.5290
22.6615,486,1.5677
22.6658,482,1.5548
22.6701,461,1.4871
22.6744,459,1.4806
22.6787,483,1.5581
22.6831,498,1.6065
22.6873,487,1.5710
22.6916,468,1.5097
22.6959,472,1.5226
22.7002,492,1.5871
22.7045,495,1.5968
22.7088,476,1.5355
22.7131,468,1.5097
22.7174,484,1.5613
22.7217,499,1.6097
22.7260,494,1.5935
22.7303,473,1.5258
22.7346,472,1.5226
22.7389,499,1.6097
22.7432,517,1.6677
22.7475,505,1.6290
22.7518,487,1.5710
22.7561,488,1.5742
22.7604,511,1.6484
22.7647,524,1.6903
22.7690,511,1.6484
22.7732,500,1.6129
22.7775,508,1.6387
22.7819,512,1.6516
22.7862,497,1.6032
22.7905,473,1.5258
22.7948,469,1.5129
22.7991,488,1.5742
22.8034,500,1.6129
22.8077,488,1.5742
22.8120,474,1.5290
22.8163,481,1.5516
22.8206,502,1.6194
22.8249,504,1.6258
22.8292,483,1.5581
22.8335,473,1.5258
22.8378,481,1.5516
22.8422,488,1.5742
22.8465,473,1.5258
22.8508,462,1.4903
22.8552,501,1.6161
22.8595,594,1.9161
22.8639,700,2.2581
22.8682,816,2.6323
22.8725,930,3.0000
22.8769,997,3.2161
22.8812,1002,3.2323
22.8856,999,3.2226
22.8899,951,3.0677
22.8942,801,2.5839
22.8985,682,2.2000
22.9029,592,1.9097
22.9072,503,1.6226
22.9115,432,1.3935
22.9159,417,1.3452
22.9202,442,1.4258
22.9245,458,1.4774
22.9289,448,1.4452
22.9333,443,1.4290
22.9376,459,1.4806
22.9419,476,1.5355
22.9462,470,1.5161
22.9505,448,1.4452
22.9548,446,1.4387
22.9590,466,1.5032
22.9634,480,1.5484
22.9676,468,1.5097
22.9719,456,1.4710
22.9762,460,1.4839
22.9805,484,1.5613
22.9848,490,1.5806
22.9891,470,1.5161
22.9934,463,1.4935
22.9977,481,1.5516
23.0021,499,1.6097
23.0064,498,1.6065
23.0107,478,1.5419
23.0149,476,1.5355
23.0192,502,1.6194
23.0235,516,1.6645
23.0278,504,1.6258
23.0321,491,1.5839
23.0364,499,1.6097
23.0407,522,1.6839
23.0450,529,1.7065
23.0493,512,1.6516
23.0536,502,1.6194
23.0579,522,1.6839
23.0622,544,1.7548
23.0665,547,1.7645
23.0708,531,1.7129
23.0751,532,1.7161
23.0794,554,1.7871
23.0837,568,1.8323
23.0880,558,1.8000
23.0923,547,1.7645
23.0966,554,1.7871
23.1009,579,1.8677
23.1052,584,1.8839
23.1095,569,1.8355
23.1138,563,1.8161
23.1181,580,1.8710
23.1223,597,1.9258
23.1266,593,1.9129
23.1309,575,1.8548
23.1351,572,1.8452
23.1394,592,1.9097
23.1438,600,1.9355
23.1480,580,1.8710
23.1524,560,1.8065
23.1566,563,1.8161
23.1609,576,1.8581
23.1652,569,1.8355
23.1695,541,1.7452
23.1738,520,1.6774
23.1781,528,1.7032
23.1824,532,1.7161
23.1867,523,1.6871
23.1910,500,1.6129
23.1953,494,1.5935
23.1996,510,1.6452
23.2039,516,1.6645
23.2082,502,1.6194
23.2125,488,1.5742
23.2168,494,1.5935
23.2211,512,1.6516
23.2253,516,1.6645
23.2296,499,1.6097
23.2339,491,1.5839
23.2382,508,1.6387
23.2426,527,1.7000
23.2469,521,1.6806
23.2512,503,1.6226
23.2555,501,1.6161
23.2597,523,1.6871
23.2640,532,1.7161
23.2683,516,1.6645
23.2726,505,1.6290
23.2768,511,1.6484
23.2812,530,1.7097
23.2855,530,1.7097
23.2898,507,1.6355
23.2941,498,1.6065
23.2984,515,1.6613
23.3027,530,1.7097
23.3070,522,1.6839
23.3113,502,1.6194
23.3156,498,1.6065
23.3199,517,1.6677
23.3242,522,1.6839
23.3286,507,1.6355
23.3329,493,1.5903
23.3371,500,1.6129
23.3415,515,1.6613
23.3457,515,1.6613
23.3500,494,1.5935
23.3543,488,1.5742
23.3586,504,1.6258
23.3633,515,1.6613
23.3676,505,1.6290
23.3719,489,1.5774
23.3762,492,1.5871
23.3805,512,1.6516
23.3848,519,1.6742
23.3891,501,1.6161
23.3934,489,1.5774
23.3977,500,1.6129
23.4020,517,1.6677
23.4063,516,1.6645
23.4106,495,1.5968
23.4148,491,1.5839
23.4191,510,1.6452
23.4235,522,1.6839
23.4278,511,1.6484
23.4322,497,1.6032
23.4365,499,1.6097
23.4408,519,1.6742
23.4450,523,1.6871
23.4493,503,1.6226
23.4536,493,1.5903
23.4578,509,1.6419
23.4621,524,1.6903
23.4664,521,1.6806
23.4706,502,1.6194
23.4749,498,1.6065
23.4791,516,1.6645
23.4834,527,1.7000
23.4876,517,1.6677
23.4919,501,1.6161
23.4961,500,1.6129
23.5004,521,1.6806
23.5047,528,1.7032
23.5090,512,1.6516
23.5132,500,1.6129
23.5175,511,1.6484
23.5218,530,1.7097
23.5260,531,1.7129
23.5303,519,1.6742
23.5346,521,1.6806
23.5389,542,1.7484
23.5431,551,1.7774
23.5475,540,1.7419
23.5518,524,1.6903
23.5561,532,1.7161
23.5603,558,1.8000
23.5646,562,1.8129
23.5689,542,1.7484
23.5733,520,1.6774
23.5776,520,1.6774
23.5819,531,1.7129
23.5862,528,1.7032
23.5905,508,1.6387
23.5948,503,1.6226
23.5991,524,1.6903
23.6034,538,1.7355
23.6076,528,1.7032
23.6120,509,1.6419
23.6162,510,1.6452
23.6205,527,1.7000
23.6248,528,1.7032
23.6291,501,1.6161
23.6335,478,1.5419
23.6378,480,1.5484
23.6420,508,1.6387
23.6463,551,1.7774
23.6506,608,1.9613
23.6550,705,2.2742
23.6593,861,2.7774
23.6636,998,3.2194
23.6679,1002,3.2323
23.6722,1003,3.2355
23.6765,1000,3.2258
23.6808,1001,3.2290
23.6851,973,3.1387
23.6894,787,2.5387
23.6937,602,1.9419
23.6980,508,1.6387
23.7023,485,1.5645
23.7066,481,1.5516
23.7109,469,1.5129
23.7152,467,1.5065
23.7195,488,1.5742
23.7238,497,1.6032
23.7281,486,1.5677
23.7324,469,1.5129
23.7367,472,1.5226
23.7410,493,1.5903
23.7452,496,1.6000
23.7495,479,1.5452
23.7538,471,1.5194
23.7581,486,1.5677
23.7623,505,1.6290
23.7665,505,1.6290
23.7708,488,1.5742
23.7751,484,1.5613
23.7793,502,1.6194
23.7836,513,1.6548
23.7879,503,1.6226
23.7921,486,1.5677
23.7964,493,1.5903
23.8007,518,1.6710
23.8049,528,1.7032
23.8092,514,1.6581
23.8134,505,1.6290
23.8177,516,1.6645
23.8219,537,1.7323
23.8262,540,1.7419
23.8304,524,1.6903
23.8347,521,1.6806
23.8390,539,1.7387
23.8433,555,1.7903
23.8476,550,1.7742
23.8519,538,1.7355
23.8562,543,1.7516
23.8605,568,1.8323
23.8648,580,1.8710
23.8691,569,1.8355
23.8734,562,1.8129
23.8777,578,1.8645
23.8820,600,1.9355
23.8863,602,1.9419
23.8906,585,1.8871
23.8949,577,1.8613
23.8992,598,1.9290
23.9035,615,1.9839
23.9078,607,1.9581
23.9120,590,1.9032
23.9164,593,1.9129
23.9207,617,1.9903
23.9250,625,2.0161
23.9293,605,1.9516
23.9336,590,1.9032
23.9379,600,1.9355
23.9422,613,1.9774
23.9465,606,1.9548
23.9508,577,1.8613
23.9551,565,1.8226
23.9594,576,1.8581
23.9636,579,1.8677
23.9680,561,1.8097
23.9723,534,1.7226
23.9766,526,1.6968
23.9809,541,1.7452
23.9852,542,1.7484
23.9895,520,1.6774
23.9938,507,1.6355
23.9981,519,1.6742
24.0024,534,1.7226
24.0067,531,1.7129
24.0110,513,1.6548
24.0153,511,1.6484
24.0196,530,1.7097
24.0239,544,1.7548
24.0282,534,1.7226
24.0325,519,1.6742
24.0368,526,1.6968
24.0411,549,1.7710
24.0454,555,1.7903
24.0497,537,1.7323
24.0539,526,1.6968
24.0582,538,1.7355
24.0626,555,1.7903
24.0668,553,1.7839
24.0711,534,1.7226
24.0754,528,1.7032
24.0797,547,1.7645
24.0840,557,1.7968
24.0883,544,1.7548
24.0926,527,1.7000
24.0969,527,1.7000
24.1012,545,1.7581
24.1055,548,1.7677
24.1098,528,1.7032
24.1140,516,1.6645
24.1183,528,1.7032
24.1226,543,1.7516
24.1269,538,1.7355
24.1312,519,1.6742
24.1355,514,1.6581
24.1398,533,1.7194
24.1440,542,1.7484
24.1483,531,1.7129
24.1526,513,1.6548
24.1569,516,1.6645
24.1612,536,1.7290
24.1655,543,1.7516
24.1698,525,1.6935
24.1740,511,1.6484
24.1783,521,1.6806
24.1826,536,1.7290
24.1869,536,1.7290
24.1912,517,1.6677
24.1955,513,1.6548
24.1998,531,1.7129
24.2041,542,1.7484
24.2084,527,1.7000
24.2127,510,1.6452
24.2169,514,1.6581
24.2212,536,1.7290
24.2256,542,1.7484
24.2298,526,1.6968
24.2341,514,1.6581
24.2384,527,1.7000
24.2427,544,1.7548
24.2470,543,1.7516
24.2513,523,1.6871
24.2556,519,1.6742
24.2599,540,1.7419
24.2642,552,1.7806
24.2685,539,1.7387
24.2728,522,1.6839
24.2770,525,1.6935
24.2814,545,1.7581
24.2857,551,1.7774
24.2900,534,1.7226
24.2942,525,1.6935
24.2985,538,1.7355
24.3028,552,1.7806
24.3071,548,1.7677
24.3114,529,1.7065
24.3157,534,1.7226
24.3200,563,1.8161
24.3243,576,1.8581
24.3286,562,1.8129
24.3329,541,1.7452
24.3372,544,1.7548
24.3415,571,1.8419
24.3458,584,1.8839
24.3501,563,1.8161
24.3544,547,1.7645
24.3586,550,1.7742
24.3629,555,1.7903
24.3672,545,1.7581
24.3715,524,1.6903
24.3758,520,1.6774
24.3801,542,1.7484
24.3844,551,1.7774
24.3887,537,1.7323
24.3930,522,1.6839
24.3973,529,1.7065
24.4015,548,1.7677
24.4058,550,1.7742
24.4101,523,1.6871
24.4144,505,1.6290
24.4187,507,1.6355
24.4230,511,1.6484
24.4273,507,1.6355
24.4316,522,1.6839
24.4359,587,1.8935
24.4403,700,2.2581
24.4445,835,2.6935
24.4488,965,3.1129
24.4531,1000,3.2258
24.4574,1002,3.2323
24.4617,1002,3.2323
24.4660,1000,3.2258
24.4703,983,3.1710
24.4746,819,2.6419
24.4789,653,2.1065
24.4832,546,1.7613
24.4875,486,1.5677
24.4918,455,1.4677
24.4961,458,1.4774
24.5004,485,1.5645
24.5047,497,1.6032
24.5090,484,1.5613
24.5133,466,1.5032
24.5176,468,1.5097
24.5219,486,1.5677
24.5262,488,1.5742
24.5305,469,1.5129
24.5348,461,1.4871
24.5390,478,1.5419
24.5434,492,1.5871
24.5476,484,1.5613
24.5519,466,1.5032
24.5562,465,1.5000
24.5605,487,1.5710
24.5648,500,1.6129
24.5691,486,1.5677
24.5734,471,1.5194
24.5777,477,1.5387
24.5820,497,1.6032
24.5863,499,1.6097
24.5905,481,1.5516
24.5948,473,1.5258
24.5991,491,1.5839
24.6034,509,1.6419
24.6077,505,1.6290
24.6120,488,1.5742
24.6163,487,1.5710
24.6206,509,1.6419
24.6249,520,1.6774
24.6292,505,1.6290
24.6335,493,1.5903
24.6378,502,1.6194
24.6421,526,1.6968
24.6464,531,1.7129
24.6507,514,1.6581
24.6550,508,1.6387
24.6592,529,1.7065
24.6636,546,1.7613
24.6678,542,1.7484
24.6721,527,1.7000
24.6764,527,1.7000
24.6807,549,1.7710
24.6850,558,1.8000
24.6893,544,1.7548
24.6936,530,1.7097
24.6979,537,1.7323
24.7021,557,1.7968
24.7064,560,1.8065
24.7107,537,1.7323
24.7150,528,1.7032
24.7193,540,1.7419
24.7236,550,1.7742
24.7279,538,1.7355
24.7322,513,1.6548
24.7365,504,1.6258
24.7408,514,1.6581
24.7451,513,1.6548
24.7493,489,1.5774
24.7537,464,1.4968
24.7580,460,1.4839
24.7623,471,1.5194
24.7666,465,1.5000
24.7709,437,1.4097
24.7752,423,1.3645
24.7795,436,1.4065
24.7838,450,1.4516
24.7881,442,1.4258
24.7924,422,1.3613
24.7967,421,1.3581
24.8010,445,1.4355
24.8053,451,1.4548
24.8096,434,1.4000
24.8139,423,1.3645
24.8182,434,1.4000
24.8225,454,1.4645
24.8268,453,1.4613
24.8311,433,1.3968
24.8354,427,1.3774
24.8397,445,1.4355
24.8441,456,1.4710
24.8484,447,1.4419
24.8527,429,1.3839
24.8570,430,1.3871
24.8613,449,1.4484
24.8656,454,1.4645
24.8699,436,1.4065
24.8742,424,1.3677
24.8785,434,1.4000
24.8827,450,1.4516
24.8870,444,1.4323
24.8913,420,1.3548
24.8956,413,1.3323
24.8999,429,1.3839
24.9042,439,1.4161
24.9085,429,1.3839
24.9127,411,1.3258
24.9170,411,1.3258
24.9214,429,1.3839
24.9256,434,1.4000
24.9299,414,1.3355
24.9342,401,1.2935
24.9385,411,1.3258
24.9428,429,1.3839
24.9471,427,1.3774
24.9514,407,1.3129
24.9556,400,1.2903
24.9599,418,1.3484
24.9643,430,1.3871
24.9685,418,1.3484
24.9729,402,1.2968
24.9771,404,1.3032
24.9814,427,1.3774
24.9858,430,1.3871
24.9900,409,1.3194
24.9943,396,1.2774
24.9986,411,1.3258
25.0029,429,1.3839
25.0072,428,1.3806
25.0115,406,1.3097
25.0158,400,1.2903
25.0201,419,1.3516
25.0246,429,1.3839
25.0291,416,1.3419
25.0335,403,1.3000
25.0380,412,1.3290
25.0424,432,1.3935
25.0469,432,1.3935
25.0513,409,1.3194
25.0556,402,1.2968
25.0599,421,1.3581
25.0641,433,1.3968
25.0684,423,1.3645
25.0727,406,1.3097
25.0769,408,1.3161
25.0812,430,1.3871
25.0855,437,1.4097
25.0898,420,1.3548
25.0940,407,1.3129
25.0983,421,1.3581
25.1025,448,1.4452
25.1068,456,1.4710
25.1111,436,1.4065
25.1153,427,1.3774
25.1197,439,1.4161
25.1243,454,1.4645
25.1286,453,1.4613
25.1328,444,1.4323
25.1371,444,1.4323
25.1413,458,1.4774
25.1456,452,1.4581
25.1499,424,1.3677
25.1542,407,1.3129
25.1586,418,1.3484
25.1629,436,1.4065
25.1672,435,1.4032
25.1716,415,1.3387
25.1760,410,1.3226
25.1804,436,1.4065
25.1847,449,1.4484
25.1890,432,1.3935
25.1934,412,1.3290
25.1977,413,1.3323
25.2021,425,1.3710
25.2064,417,1.3452
25.2107,390,1.2581
25.2150,396,1.2774
25.2194,466,1.5032
25.2238,565,1.8226
25.2281,670,2.1613
25.2324,793,2.5581
25.2367,929,2.9968
25.2411,999,3.2226
25.2454,1000,3.2258
25.2497,996,3.2129
25.2541,886,2.8581
25.2584,718,2.3161
25.2627,589,1.9000
25.2670,481,1.5516
25.2713,395,1.2742
25.2756,368,1.1871
25.2799,392,1.2645
25.2842,411,1.3258
25.2885,409,1.3194
25.2928,394,1.2710
25.2970,392,1.2645
25.3014,413,1.3323
25.3057,419,1.3516
25.3099,402,1.2968
25.3142,391,1.2613
25.3185,404,1.3032
25.3228,423,1.3645
25.3271,422,1.3613
25.3314,403,1.3000
25.3357,398,1.2839
25.3400,420,1.3548
25.3443,435,1.4032
25.3487,427,1.3774
25.3530,411,1.3258
25.3573,416,1.3419
25.3617,441,1.4226
25.3660,448,1.4452
25.3704,431,1.3903
25.3747,424,1.3677
25.3790,440,1.4194
25.3833,461,1.4871
25.3877,461,1.4871
25.3920,442,1.4258
25.3963,442,1.4258
25.4006,469,1.5129
25.4050,483,1.5581
25.4093,472,1.5226
25.4137,462,1.4903
25.4180,471,1.5194
25.4223,494,1.5935
25.4267,499,1.6097
25.4310,483,1.5581
25.4353,480,1.5484
25.4396,501,1.6161
25.4440,521,1.6806
25.4483,521,1.6806
25.4526,506,1.6323
25.4569,509,1.6419
25.4612,531,1.7129
25.4655,541,1.7452
25.4698,527,1.7000
25.4741,516,1.6645
25.4784,525,1.6935
25.4827,545,1.7581
25.4870,549,1.7710
25.4913,529,1.7065
25.4956,523,1.6871
25.4999,538,1.7355
25.5042,550,1.7742
25.5085,539,1.7387
25.5128,515,1.6613
25.5171,509,1.6419
25.5214,522,1.6839
25.5257,521,1.6806
25.5300,494,1.5935
25.5342,472,1.5226
25.5385,472,1.5226
25.5428,482,1.5548
25.5471,474,1.5290
25.5514,447,1.4419
25.5558,437,1.4097
25.5601,451,1.4548
25.5644,463,1.4935
25.5688,449,1.4484
25.5731,430,1.3871
25.5774,433,1.3968
25.5818,458,1.4774
25.5861,465,1.5000
25.5904,445,1.4355
25.5948,438,1.4129
25.5991,454,1.4645
25.6034,473,1.5258
25.6078,472,1.5226
25.6121,451,1.4548
25.6164,450,1.4516
25.6207,473,1.5258
25.6251,486,1.5677
25.6294,471,1.5194
25.6338,454,1.4645
25.6381,462,1.4903
25.6424,482,1.5548
25.6467,484,1.5613
25.6512,465,1.5000
25.6555,455,1.4677
25.6598,472,1.5226
25.6641,481,1.5516
25.6684,472,1.5226
25.6727,453,1.4613
25.6770,452,1.4581
25.6813,473,1.5258
25.6856,480,1.5484
25.6899,462,1.4903
25.6942,449,1.4484
25.6985,457,1.4742
25.7028,476,1.5355
25.7071,475,1.5323
25.7114,454,1.4645
25.7157,448,1.4452
25.7200,467,1.5065
25.7243,478,1.5419
25.7285,469,1.5129
25.7328,448,1.4452
25.7371,449,1.4484
25.7414,471,1.5194
25.7457,481,1.5516
25.7500,465,1.5000
25.7543,452,1.4581
25.7586,459,1.4806
25.7630,474,1.5290
25.7673,473,1.5258
25.7716,452,1.4581
25.7760,446,1.4387
25.7803,468,1.5097
25.7846,483,1.5581
25.7890,474,1.5290
25.7933,454,1.4645
25.7976,456,1.4710
25.8020,477,1.5387
25.8063,484,1.5613
25.8106,467,1.5065
25.8150,458,1.4774
25.8193,472,1.5226
25.8236,488,1.5742
25.8279,486,1.5677
25.8323,465,1.5000
25.8366,463,1.4935
25.8409,486,1.5677
25.8453,498,1.6065
25.8496,486,1.5677
25.8540,470,1.5161
25.8584,475,1.5323
25.8627,493,1.5903
25.8670,494,1.5935
25.8713,474,1.5290
25.8756,468,1.5097
25.8799,484,1.5613
25.8842,499,1.6097
25.8885,499,1.6097
25.8927,487,1.5710
25.8971,489,1.5774
25.9013,510,1.6452
25.9056,519,1.6742
25.9099,504,1.6258
25.9142,495,1.5968
25.9185,511,1.6484
25.9228,531,1.7129
25.9271,527,1.7000
25.9314,501,1.6161
25.9357,485,1.5645
25.9400,498,1.6065
25.9443,511,1.6484
25.9486,502,1.6194
25.9529,482,1.5548
25.9572,481,1.5516
25.9615,503,1.6226
25.9659,514,1.6581
25.9702,500,1.6129
25.9745,487,1.5710
25.9789,493,1.5903
25.9832,509,1.6419
25.9875,501,1.6161
25.9919,474,1.5290
25.9962,463,1.4935
26.0005,494,1.5935
26.0048,552,1.7806
26.0092,619,1.9968
26.0135,700,2.2581
26.0178,837,2.7000
26.0222,982,3.1677
26.0265,999,3.2226
26.0308,1001,3.2290
26.0352,999,3.2226
26.0395,959,3.0935
26.0439,831,2.6806
26.0482,695,2.2419
26.0525,572,1.8452
26.0568,489,1.5774
26.0612,463,1.4935
26.0655,458,1.4774
26.0698,445,1.4355
26.0741,437,1.4097
26.0784,455,1.4677
26.0827,484,1.5613
26.0870,489,1.5774
26.0913,469,1.5129
26.0956,459,1.4806
26.0999,476,1.5355
26.1042,494,1.5935
26.1085,488,1.5742
26.1128,470,1.5161
26.1170,471,1.5194
26.1214,496,1.6000
26.1256,507,1.6355
26.1299,491,1.5839
26.1342,478,1.5419
26.1385,487,1.5710
26.1428,509,1.6419
26.1471,515,1.6613
26.1514,498,1.6065
26.1557,493,1.5903
26.1600,510,1.6452
26.1644,527,1.7000
26.1687,522,1.6839
26.1730,506,1.6323
26.1773,510,1.6452
26.1817,535,1.7258
26.1860,546,1.7613
26.1904,532,1.7161
26.1947,522,1.6839
26.1990,535,1.7258
26.2034,556,1.7935
26.2077,557,1.7968
26.2120,539,1.7387
26.2163,538,1.7355
26.2207,563,1.8161
26.2250,578,1.8645
26.2293,572,1.8452
26.2337,558,1.8000
