time_s,adc_raw,voltage
1207.8841,587,1.8935
1207.8884,586,1.8903
1207.8926,591,1.9065
1207.897,597,1.9258
1207.9013,600,1.9355
1207.9056,598,1.929
1207.9098,596,1.9226
1207.9141,595,1.9194
1207.9184,588,1.8968
1207.9227,570,1.8387
1207.927,557,1.7968
1207.9313,555,1.7903
1207.9356,555,1.7903
1207.9399,552,1.7806
1207.9443,535,1.7258
1207.9487,517,1.6677
1207.9532,508,1.6387
1207.9576,502,1.6194
1207.962,490,1.5806
1207.9663,473,1.5258
1207.9705,460,1.4839
1207.9748,455,1.4677
1207.9791,449,1.4484
1207.9834,449,1.4484
1207.9877,451,1.4548
1207.992,454,1.4645
1207.9963,460,1.4839
1208.0006,467,1.5065
1208.0049,475,1.5323
1208.0092,479,1.5452
1208.0135,478,1.5419
1208.0178,476,1.5355
1208.0221,471,1.5194
1208.0264,468,1.5097
1208.0307,468,1.5097
1208.0349,477,1.5387
1208.0392,482,1.5548
1208.0435,486,1.5677
1208.0478,483,1.5581
1208.0521,480,1.5484
1208.0564,486,1.5677
1208.0607,485,1.5645
1208.065,484,1.5613
1208.0693,483,1.5581
1208.0736,486,1.5677
1208.0779,485,1.5645
1208.0822,481,1.5516
1208.0865,478,1.5419
1208.0908,484,1.5613
1208.095,484,1.5613
1208.0993,480,1.5484
1208.1036,472,1.5226
1208.1079,472,1.5226
1208.1122,477,1.5387
1208.1165,482,1.5548
1208.1208,488,1.5742
1208.1251,494,1.5935
1208.1294,486,1.5677
1208.1337,471,1.5194
1208.138,469,1.5129
1208.1423,476,1.5355
1208.1466,479,1.5452
1208.1509,484,1.5613
1208.1552,495,1.5968
1208.1595,495,1.5968
1208.1638,493,1.5903
1208.1682,496,1.6
1208.1725,500,1.6129
1208.1768,495,1.5968
1208.1811,495,1.5968
1208.1855,494,1.5935
1208.1898,494,1.5935
1208.1941,493,1.5903
1208.1985,494,1.5935
1208.2028,493,1.5903
1208.2072,499,1.6097
1208.2115,506,1.6323
1208.2159,508,1.6387
1208.2202,513,1.6548
1208.2245,517,1.6677
1208.2288,519,1.6742
1208.2332,512,1.6516
1208.238,514,1.6581
1208.245,516,1.6645
1208.2495,530,1.7097
1208.254,539,1.7387
1208.259,541,1.7452
1208.2634,542,1.7484
1208.2677,542,1.7484
1208.2719,536,1.729
1208.2762,538,1.7355
1208.2804,554,1.7871
1208.2847,564,1.8194
1208.289,575,1.8548
1208.2933,583,1.8806
1208.2975,568,1.8323
1208.3018,542,1.7484
1208.3064,543,1.7516
1208.3108,542,1.7484
1208.315,537,1.7323
1208.3193,535,1.7258
1208.3236,542,1.7484
1208.3278,531,1.7129
1208.3321,509,1.6419
1208.3364,492,1.5871
1208.3407,475,1.5323
1208.3455,467,1.5065
1208.3498,460,1.4839
1208.3541,458,1.4774
1208.3584,464,1.4968
1208.3627,467,1.5065
1208.367,465,1.5
1208.3713,464,1.4968
1208.3756,465,1.5
1208.3798,466,1.5032
1208.3841,464,1.4968
1208.3883,465,1.5
1208.3926,464,1.4968
1208.397,465,1.5
1208.4012,467,1.5065
1208.4058,467,1.5065
1208.4101,468,1.5097
1208.4144,468,1.5097
1208.4186,469,1.5129
1208.4229,479,1.5452
1208.4276,504,1.6258
1208.4319,551,1.7774
1208.4361,622,2.0065
1208.4404,694,2.2387
1208.4446,701,2.2613
1208.4489,615,1.9839
1208.4532,512,1.6516
1208.4575,455,1.4677
1208.4618,447,1.4419
1208.4661,442,1.4258
1208.4703,415,1.3387
1208.4746,400,1.2903
1208.4789,412,1.329
1208.4832,447,1.4419
1208.4874,484,1.5613
1208.4917,505,1.629
1208.496,509,1.6419
1208.5002,510,1.6452
1208.5045,515,1.6613
1208.5088,517,1.6677
1208.5137,513,1.6548
1208.518,515,1.6613
1208.5222,516,1.6645
1208.5265,515,1.6613
1208.5308,520,1.6774
1208.5351,526,1.6968
1208.5393,523,1.6871
1208.5436,520,1.6774
1208.5479,519,1.6742
1208.5521,524,1.6903
1208.5565,527,1.7
1208.5613,531,1.7129
1208.5656,530,1.7097
1208.5698,532,1.7161
1208.5741,533,1.7194
1208.5784,533,1.7194
1208.5827,535,1.7258
1208.587,541,1.7452
1208.5915,548,1.7677
1208.5958,557,1.7968
1208.6001,559,1.8032
1208.6043,559,1.8032
1208.6086,552,1.7806
1208.6129,554,1.7871
1208.6172,557,1.7968
1208.6215,562,1.8129
1208.6257,559,1.8032
1208.63,563,1.8161
1208.6342,566,1.8258
1208.6385,566,1.8258
1208.6428,565,1.8226
1208.647,566,1.8258
1208.6513,569,1.8355
1208.6555,570,1.8387
1208.6599,571,1.8419
1208.6642,567,1.829
1208.6684,567,1.829
1208.6729,570,1.8387
1208.6773,567,1.829
1208.6815,558,1.8
1208.6858,551,1.7774
1208.69,543,1.7516
1208.6942,531,1.7129
1208.6985,520,1.6774
1208.7027,508,1.6387
1208.707,498,1.6065
1208.7113,490,1.5806
1208.7156,484,1.5613
1208.7199,476,1.5355
1208.7241,466,1.5032
1208.7283,458,1.4774
1208.7326,455,1.4677
1208.7369,458,1.4774
1208.7411,454,1.4645
1208.7454,453,1.4613
1208.7496,453,1.4613
1208.7539,452,1.4581
1208.7581,457,1.4742
1208.7624,452,1.4581
1208.7667,455,1.4677
1208.771,460,1.4839
1208.7753,466,1.5032
1208.7796,473,1.5258
1208.7838,478,1.5419
1208.7881,480,1.5484
1208.7924,482,1.5548
1208.7966,486,1.5677
1208.8009,486,1.5677
1208.8052,481,1.5516
1208.8095,478,1.5419
1208.8138,480,1.5484
1208.8181,486,1.5677
1208.8224,487,1.571
1208.8267,488,1.5742
1208.8309,490,1.5806
1208.8353,488,1.5742
1208.8396,486,1.5677
1208.844,487,1.571
1208.8484,489,1.5774
1208.8529,494,1.5935
1208.8572,489,1.5774
1208.8616,481,1.5516
1208.866,481,1.5516
1208.8703,483,1.5581
1208.8746,489,1.5774
1208.8788,491,1.5839
1208.8831,489,1.5774
1208.8874,486,1.5677
1208.8917,486,1.5677
1208.896,489,1.5774
1208.9003,492,1.5871
1208.9046,491,1.5839
1208.9089,484,1.5613
1208.9132,479,1.5452
1208.9175,488,1.5742
1208.9218,495,1.5968
1208.9261,498,1.6065
1208.9304,503,1.6226
1208.9346,502,1.6194
1208.9389,498,1.6065
1208.9432,499,1.6097
1208.9475,500,1.6129
1208.9518,501,1.6161
1208.9561,500,1.6129
1208.9604,502,1.6194
1208.9648,502,1.6194
1208.9691,500,1.6129
1208.9734,495,1.5968
1208.9778,494,1.5935
1208.9821,492,1.5871
1208.9864,491,1.5839
1208.9907,492,1.5871
1208.9951,496,1.6
1208.9994,500,1.6129
1209.0037,502,1.6194
1209.0081,503,1.6226
1209.0124,510,1.6452
1209.0167,509,1.6419
1209.0211,510,1.6452
1209.0254,518,1.671
1209.0297,532,1.7161
1209.0341,529,1.7065
1209.0384,523,1.6871
1209.0427,519,1.6742
1209.0471,510,1.6452
1209.0514,501,1.6161
1209.0558,500,1.6129
1209.0601,498,1.6065
1209.0644,491,1.5839
1209.0687,487,1.571
1209.073,486,1.5677
1209.0773,482,1.5548
1209.0816,486,1.5677
1209.0859,489,1.5774
1209.0902,491,1.5839
1209.0945,493,1.5903
1209.0988,491,1.5839
1209.1031,489,1.5774
1209.1074,479,1.5452
1209.1116,478,1.5419
1209.1159,474,1.529
1209.1202,471,1.5194
1209.1245,469,1.5129
1209.1288,471,1.5194
1209.1331,471,1.5194
1209.1374,469,1.5129
1209.1417,470,1.5161
1209.1468,471,1.5194
1209.1513,476,1.5355
1209.1556,506,1.6323
1209.1599,565,1.8226
1209.1642,604,1.9484
1209.1685,645,2.0806
1209.1728,706,2.2774
1209.1771,794,2.5613
1209.1814,792,2.5548
1209.1857,680,2.1935
1209.19,572,1.8452
1209.1943,527,1.7
1209.1986,525,1.6935
1209.2029,507,1.6355
1209.2071,473,1.5258
1209.2115,459,1.4806
1209.2158,464,1.4968
1209.22,496,1.6
1209.2243,527,1.7
1209.2286,554,1.7871
1209.2329,556,1.7935
1209.2372,552,1.7806
1209.2415,548,1.7677
1209.2458,576,1.8581
1209.2501,610,1.9677
1209.2544,644,2.0774
1209.2587,671,2.1645
1209.263,685,2.2097
1209.2673,689,2.2226
1209.2717,694,2.2387
1209.276,692,2.2323
1209.2803,696,2.2452
1209.2846,695,2.2419
1209.289,696,2.2452
1209.2933,689,2.2226
1209.2976,683,2.2032
1209.3019,684,2.2065
1209.3063,689,2.2226
1209.3106,688,2.2194
1209.315,682,2.2
1209.3193,680,2.1935
1209.3236,677,2.1839
1209.328,681,2.1968
1209.3323,683,2.2032
1209.3366,680,2.1935
1209.341,675,2.1774
1209.3453,666,2.1484
1209.3496,657,2.1194
1209.354,659,2.1258
1209.3583,659,2.1258
1209.3626,657,2.1194
1209.367,659,2.1258
1209.3713,658,2.1226
1209.3756,657,2.1194
1209.3799,652,2.1032
1209.3842,649,2.0935
1209.3884,646,2.0839
1209.3927,642,2.071
1209.3971,646,2.0839
1209.4013,640,2.0645
1209.4056,635,2.0484
1209.4099,633,2.0419
1209.4142,626,2.0194
1209.4185,617,1.9903
1209.4228,601,1.9387
1209.4271,579,1.8677
1209.4314,565,1.8226
1209.4357,552,1.7806
1209.44,537,1.7323
1209.4443,526,1.6968
1209.4486,513,1.6548
1209.4529,501,1.6161
1209.4572,493,1.5903
1209.4615,482,1.5548
1209.4658,473,1.5258
1209.4701,470,1.5161
1209.4745,470,1.5161
1209.4788,472,1.5226
1209.4831,473,1.5258
1209.4874,472,1.5226
1209.4918,470,1.5161
1209.4961,467,1.5065
1209.5004,472,1.5226
1209.5048,474,1.529
1209.5091,472,1.5226
1209.5134,468,1.5097
1209.5177,470,1.5161
1209.5221,469,1.5129
1209.5264,467,1.5065
1209.5307,470,1.5161
1209.5351,474,1.529
1209.5394,480,1.5484
1209.5437,481,1.5516
1209.5481,480,1.5484
1209.5524,483,1.5581
1209.5567,481,1.5516
1209.5611,476,1.5355
1209.5654,474,1.529
1209.5697,477,1.5387
1209.574,483,1.5581
1209.5783,484,1.5613
1209.5826,487,1.571
1209.5869,489,1.5774
1209.5912,488,1.5742
1209.5955,485,1.5645
1209.5997,482,1.5548
1209.604,481,1.5516
1209.6083,481,1.5516
1209.6126,481,1.5516
1209.617,479,1.5452
1209.6213,476,1.5355
1209.6255,474,1.529
1209.6298,477,1.5387
1209.6341,479,1.5452
1209.6384,483,1.5581
1209.6427,482,1.5548
1209.6471,481,1.5516
1209.6513,482,1.5548
1209.6556,488,1.5742
1209.6599,488,1.5742
1209.6643,483,1.5581
1209.6686,479,1.5452
1209.673,478,1.5419
1209.6773,477,1.5387
1209.6816,480,1.5484
1209.6859,480,1.5484
1209.6903,482,1.5548
1209.6946,484,1.5613
1209.6989,482,1.5548
1209.7033,479,1.5452
1209.7076,475,1.5323
1209.7119,478,1.5419
1209.7162,480,1.5484
1209.7206,481,1.5516
1209.7249,483,1.5581
1209.7292,483,1.5581
1209.7336,483,1.5581
1209.7379,484,1.5613
1209.7423,482,1.5548
1209.7475,484,1.5613
1209.752,487,1.571
1209.7563,492,1.5871
1209.7607,492,1.5871
1209.7651,488,1.5742
1209.7694,486,1.5677
1209.7737,488,1.5742
1209.778,487,1.571
1209.7823,489,1.5774
1209.7866,491,1.5839
1209.7909,490,1.5806
1209.7952,496,1.6
1209.7995,503,1.6226
1209.8037,509,1.6419
1209.808,507,1.6355
1209.8123,509,1.6419
1209.8166,519,1.6742
1209.8209,523,1.6871
1209.8252,521,1.6806
1209.8295,518,1.671
1209.8338,519,1.6742
1209.8381,515,1.6613
1209.8424,506,1.6323
1209.8467,503,1.6226
1209.851,494,1.5935
1209.8553,484,1.5613
1209.8596,476,1.5355
1209.8639,474,1.529
1209.8682,474,1.529
1209.8725,473,1.5258
1209.8768,470,1.5161
1209.8812,468,1.5097
1209.8855,465,1.5
1209.8898,466,1.5032
1209.8941,466,1.5032
1209.8985,463,1.4935
1209.9028,460,1.4839
1209.9072,457,1.4742
1209.9115,459,1.4806
1209.9163,464,1.4968
1209.9206,465,1.5
1209.925,465,1.5
1209.9293,466,1.5032
1209.9336,466,1.5032
1209.938,468,1.5097
1209.9423,472,1.5226
1209.9466,477,1.5387
1209.9509,494,1.5935
1209.9553,525,1.6935
1209.9596,576,1.8581
1209.964,648,2.0903
1209.9683,708,2.2839
1209.9726,673,2.171
1209.9769,567,1.829
1209.9812,472,1.5226
1209.9855,439,1.4161
1209.9898,443,1.429
1209.9941,433,1.3968
1209.9983,410,1.3226
1210.0026,406,1.3097
1210.007,430,1.3871
1210.0113,465,1.5
1210.0155,494,1.5935
1210.0198,506,1.6323
1210.0242,510,1.6452
1210.0284,509,1.6419
1210.0327,511,1.6484
1210.0371,508,1.6387
1210.0414,511,1.6484
1210.047,519,1.6742
1210.0514,518,1.671
1210.0557,518,1.671
1210.0601,515,1.6613
1210.0644,512,1.6516
1210.0687,513,1.6548
1210.073,508,1.6387
1210.0773,511,1.6484
1210.0816,513,1.6548
1210.0859,509,1.6419
1210.0902,512,1.6516
1210.0945,514,1.6581
1210.0987,517,1.6677
1210.103,521,1.6806
1210.1073,523,1.6871
1210.1116,523,1.6871
1210.1159,529,1.7065
1210.1202,534,1.7226
1210.1245,537,1.7323
1210.1288,536,1.729
1210.1331,539,1.7387
1210.1374,545,1.7581
1210.1417,553,1.7839
1210.146,560,1.8065
1210.1503,564,1.8194
1210.1546,566,1.8258
1210.1589,567,1.829
1210.1632,565,1.8226
1210.1676,568,1.8323
1210.1719,569,1.8355
1210.1762,574,1.8516
1210.1805,580,1.871
1210.1849,578,1.8645
1210.1892,580,1.871
1210.1935,577,1.8613
1210.1979,572,1.8452
1210.2022,569,1.8355
1210.2065,558,1.8
1210.2108,553,1.7839
1210.2152,542,1.7484
1210.2195,527,1.7
1210.2238,511,1.6484
1210.2282,501,1.6161
1210.2325,492,1.5871
1210.2369,479,1.5452
1210.2412,468,1.5097
1210.2455,458,1.4774
1210.2498,450,1.4516
1210.2542,448,1.4452
1210.2585,442,1.4258
1210.2629,436,1.4065
1210.2672,429,1.3839
1210.2715,421,1.3581
1210.2759,420,1.3548
1210.2801,425,1.371
1210.2844,429,1.3839
1210.2887,429,1.3839
1210.293,431,1.3903
1210.2973,435,1.4032
1210.3016,436,1.4065
1210.3059,435,1.4032
1210.3102,439,1.4161
1210.3145,447,1.4419
1210.3188,448,1.4452
1210.3231,451,1.4548
1210.3274,451,1.4548
1210.3317,452,1.4581
1210.336,458,1.4774
1210.3403,463,1.4935
1210.3445,466,1.5032
1210.3488,469,1.5129
1210.3531,470,1.5161
1210.3574,468,1.5097
1210.3617,467,1.5065
1210.366,470,1.5161
1210.3703,471,1.5194
1210.3747,470,1.5161
1210.379,472,1.5226
1210.3833,474,1.529
1210.3877,476,1.5355
1210.392,476,1.5355
1210.3963,476,1.5355
1210.4007,474,1.529
1210.405,475,1.5323
1210.4093,478,1.5419
1210.4137,478,1.5419
1210.418,479,1.5452
1210.4223,479,1.5452
1210.4266,480,1.5484
1210.431,481,1.5516
1210.4353,485,1.5645
1210.4396,482,1.5548
1210.444,478,1.5419
1210.4483,476,1.5355
1210.4526,477,1.5387
1210.457,475,1.5323
1210.4613,473,1.5258
1210.4656,476,1.5355
1210.47,476,1.5355
1210.4743,479,1.5452
1210.4786,480,1.5484
1210.4829,477,1.5387
1210.4872,477,1.5387
1210.4915,475,1.5323
1210.4958,475,1.5323
1210.5001,477,1.5387
1210.5044,477,1.5387
1210.5087,473,1.5258
1210.513,474,1.529
1210.5173,474,1.529
1210.5216,475,1.5323
1210.5259,476,1.5355
1210.5302,480,1.5484
1210.5345,482,1.5548
1210.5388,483,1.5581
1210.5431,484,1.5613
1210.5473,482,1.5548
1210.5516,482,1.5548
1210.5559,481,1.5516
1210.5602,479,1.5452
1210.5645,475,1.5323
1210.5688,477,1.5387
1210.5731,482,1.5548
1210.5775,483,1.5581
1210.5818,479,1.5452
1210.5861,477,1.5387
1210.5905,476,1.5355
1210.5948,481,1.5516
1210.5991,481,1.5516
1210.6035,479,1.5452
1210.6078,483,1.5581
1210.6121,486,1.5677
1210.6164,489,1.5774
1210.6208,492,1.5871
1210.6251,501,1.6161
1210.6294,508,1.6387
1210.6338,513,1.6548
1210.6381,514,1.6581
1210.6425,518,1.671
1210.648,522,1.6839
1210.6525,525,1.6935
1210.6568,522,1.6839
1210.6612,518,1.671
1210.6656,509,1.6419
1210.6699,502,1.6194
1210.6742,501,1.6161
1210.6785,495,1.5968
1210.6829,487,1.571
1210.6871,483,1.5581
1210.6914,482,1.5548
1210.6957,478,1.5419
1210.7,475,1.5323
1210.7043,476,1.5355
1210.7086,475,1.5323
1210.7129,475,1.5323
1210.7172,477,1.5387
1210.7215,474,1.529
1210.7258,470,1.5161
1210.7301,474,1.529
1210.7344,475,1.5323
1210.7387,472,1.5226
1210.743,473,1.5258
1210.7473,474,1.529
1210.7515,476,1.5355
1210.7558,479,1.5452
1210.7601,485,1.5645
1210.7644,486,1.5677
1210.7687,487,1.571
1210.7731,489,1.5774
1210.7774,502,1.6194
1210.7818,527,1.7
1210.7861,563,1.8161
1210.7904,619,1.9968
1210.7948,690,2.2258
1210.7991,723,2.3323
1210.8034,651,2.1
1210.8078,541,1.7452
1210.8121,464,1.4968
1210.8164,444,1.4323
1210.8207,439,1.4161
1210.8251,417,1.3452
1210.8294,400,1.2903
1210.8338,416,1.3419
1210.8381,451,1.4548
1210.8424,489,1.5774
1210.8468,514,1.6581
1210.8511,522,1.6839
1210.8554,526,1.6968
1210.8597,522,1.6839
1210.8641,521,1.6806
1210.8684,519,1.6742
1210.8727,519,1.6742
1210.8771,521,1.6806
1210.8814,524,1.6903
1210.8857,522,1.6839
1210.89,526,1.6968
1210.8943,528,1.7032
1210.8986,529,1.7065
1210.9029,530,1.7097
1210.9072,534,1.7226
1210.9115,535,1.7258
1210.9158,537,1.7323
1210.9201,535,1.7258
1210.9244,530,1.7097
1210.9287,524,1.6903
1210.933,524,1.6903
1210.9373,525,1.6935
1210.9416,530,1.7097
1210.9475,539,1.7387
1210.9519,545,1.7581
1210.9562,556,1.7935
1210.9605,562,1.8129
1210.9648,567,1.829
1210.9692,565,1.8226
1210.9734,565,1.8226
1210.9777,570,1.8387
1210.982,573,1.8484
1210.9863,574,1.8516
1210.9906,577,1.8613
1210.995,581,1.8742
1210.9995,579,1.8677
1211.004,581,1.8742
1211.0085,582,1.8774
1211.0131,586,1.8903
1211.0177,586,1.8903
1211.0223,581,1.8742
1211.0267,579,1.8677
1211.0311,576,1.8581
1211.0354,569,1.8355
1211.0397,559,1.8032
1211.044,548,1.7677
1211.0483,537,1.7323
1211.0526,525,1.6935
1211.0568,512,1.6516
1211.0611,500,1.6129
1211.0654,485,1.5645
1211.0697,476,1.5355
1211.074,466,1.5032
1211.0783,454,1.4645
1211.0826,445,1.4355
1211.0869,439,1.4161
1211.0911,434,1.4
1211.0954,433,1.3968
1211.0997,431,1.3903
1211.1039,433,1.3968
1211.1082,436,1.4065
1211.1125,439,1.4161
1211.1168,442,1.4258
1211.121,443,1.429
1211.1253,441,1.4226
1211.1296,441,1.4226
1211.1339,447,1.4419
1211.1381,455,1.4677
1211.1424,460,1.4839
1211.1467,463,1.4935
1211.1509,468,1.5097
1211.1552,472,1.5226
1211.1595,468,1.5097
1211.1637,467,1.5065
1211.168,469,1.5129
1211.1722,470,1.5161
1211.1766,469,1.5129
1211.1809,467,1.5065
1211.1852,464,1.4968
1211.1896,464,1.4968
1211.1939,468,1.5097
1211.1982,472,1.5226
1211.2026,469,1.5129
1211.2069,473,1.5258
1211.2112,477,1.5387
1211.2156,480,1.5484
1211.2199,477,1.5387
1211.2242,477,1.5387
1211.2285,480,1.5484
1211.2329,484,1.5613
1211.2372,479,1.5452
1211.2416,479,1.5452
1211.2459,477,1.5387
1211.2502,479,1.5452
1211.2546,480,1.5484
1211.2589,481,1.5516
1211.2632,478,1.5419
1211.2676,480,1.5484
1211.2719,483,1.5581
1211.2762,484,1.5613
1211.2806,486,1.5677
1211.2849,487,1.571
1211.2892,489,1.5774
1211.2935,489,1.5774
1211.2978,488,1.5742
1211.302,489,1.5774
1211.3063,490,1.5806
1211.3106,488,1.5742
1211.3149,489,1.5774
1211.3192,491,1.5839
1211.3235,490,1.5806
1211.3278,492,1.5871
1211.3321,492,1.5871
1211.3364,492,1.5871
1211.3407,493,1.5903
1211.345,489,1.5774
1211.3493,491,1.5839
1211.3536,489,1.5774
1211.3579,491,1.5839
1211.3622,491,1.5839
1211.3665,488,1.5742
1211.3707,486,1.5677
1211.375,481,1.5516
1211.3793,476,1.5355
1211.3837,476,1.5355
1211.388,479,1.5452
1211.3923,484,1.5613
1211.3966,486,1.5677
1211.401,487,1.571
1211.4053,484,1.5613
1211.4096,480,1.5484
1211.4139,479,1.5452
1211.4183,478,1.5419
1211.4226,478,1.5419
1211.427,476,1.5355
1211.4313,479,1.5452
1211.4356,480,1.5484
1211.44,480,1.5484
1211.4443,480,1.5484
1211.4486,480,1.5484
1211.453,481,1.5516
1211.4573,486,1.5677
1211.4616,496,1.6
1211.466,504,1.6258
1211.4703,507,1.6355
1211.4746,513,1.6548
1211.4791,515,1.6613
1211.4834,513,1.6548
1211.4877,506,1.6323
1211.492,499,1.6097
1211.4963,500,1.6129
1211.5006,495,1.5968
1211.5049,491,1.5839
1211.5092,488,1.5742
1211.5135,487,1.571
1211.5177,484,1.5613
1211.522,482,1.5548
1211.5263,477,1.5387
1211.531,476,1.5355
1211.5353,475,1.5323
1211.5397,483,1.5581
1211.5441,477,1.5387
1211.5485,472,1.5226
1211.553,469,1.5129
1211.5573,452,1.4581
1211.5616,444,1.4323
1211.5659,438,1.4129
1211.5702,417,1.3452
1211.5745,390,1.2581
1211.5788,372,1.2
1211.5831,356,1.1484
1211.5874,347,1.1194
1211.5917,345,1.1129
1211.596,348,1.1226
1211.6003,355,1.1452
1211.6046,359,1.1581
1211.6089,370,1.1935
1211.6132,385,1.2419
1211.6175,436,1.4065
1211.6218,540,1.7419
1211.6261,645,2.0806
1211.6303,676,2.1806
1211.6346,609,1.9645
1211.6389,524,1.6903
1211.6432,471,1.5194
1211.6475,468,1.5097
1211.6518,466,1.5032
1211.6561,449,1.4484
1211.6604,435,1.4032
1211.6647,443,1.429
1211.669,472,1.5226
1211.6733,504,1.6258
1211.6776,531,1.7129
1211.6819,541,1.7452
1211.6862,543,1.7516
1211.6905,546,1.7613
1211.6948,539,1.7387
1211.6992,535,1.7258
1211.7035,529,1.7065
1211.7078,525,1.6935
1211.7122,522,1.6839
1211.7165,527,1.7
1211.7208,529,1.7065
1211.7252,527,1.7
1211.7295,530,1.7097
1211.7338,535,1.7258
1211.7382,537,1.7323
1211.7425,537,1.7323
1211.7468,544,1.7548
1211.7512,555,1.7903
1211.7555,559,1.8032
1211.7598,562,1.8129
1211.7641,563,1.8161
1211.7685,563,1.8161
1211.7729,563,1.8161
1211.7772,564,1.8194
1211.7816,564,1.8194
1211.786,564,1.8194
1211.7903,568,1.8323
1211.7946,571,1.8419
1211.7989,574,1.8516
1211.8032,577,1.8613
1211.8074,582,1.8774
1211.8117,586,1.8903
1211.816,592,1.9097
1211.8203,587,1.8935
1211.8246,582,1.8774
1211.8289,586,1.8903
1211.8332,593,1.9129
1211.8375,594,1.9161
1211.8418,592,1.9097
1211.8481,590,1.9032
1211.8525,596,1.9226
1211.8569,593,1.9129
1211.8611,588,1.8968
1211.8654,583,1.8806
1211.8697,574,1.8516
1211.874,557,1.7968
1211.8784,541,1.7452
1211.8827,525,1.6935
1211.887,514,1.6581
1211.8914,492,1.5871
1211.8957,477,1.5387
1211.8999,470,1.5161
1211.9042,466,1.5032
1211.9085,462,1.4903
1211.9129,440,1.4194
1211.9172,423,1.3645
1211.9215,415,1.3387
1211.9258,411,1.3258
1211.9301,415,1.3387
1211.9344,416,1.3419
1211.9387,421,1.3581
1211.943,423,1.3645
1211.9473,423,1.3645
1211.9516,425,1.371
1211.9559,433,1.3968
1211.9602,439,1.4161
1211.9645,443,1.429
1211.9688,444,1.4323
1211.9731,441,1.4226
1211.9774,447,1.4419
1211.9816,456,1.471
1211.9859,464,1.4968
1211.9903,466,1.5032
1211.9946,469,1.5129
1211.999,465,1.5
1212.0033,464,1.4968
1212.0077,466,1.5032
1212.0121,465,1.5
1212.0164,464,1.4968
1212.0207,467,1.5065
1212.025,474,1.529
1212.0293,484,1.5613
1212.0337,490,1.5806
1212.038,494,1.5935
1212.0424,491,1.5839
1212.0467,489,1.5774
1212.0511,491,1.5839
1212.0554,488,1.5742
1212.0597,472,1.5226
1212.064,448,1.4452
1212.0684,431,1.3903
1212.0727,420,1.3548
1212.0771,412,1.329
1212.0814,412,1.329
1212.0857,420,1.3548
1212.0901,427,1.3774
1212.0944,422,1.3613
1212.0987,415,1.3387
1212.103,398,1.2839
1212.1072,396,1.2774
1212.1115,398,1.2839
1212.1158,404,1.3032
1212.1201,410,1.3226
1212.1244,411,1.3258
1212.1287,416,1.3419
1212.133,421,1.3581
1212.1373,426,1.3742
1212.1416,440,1.4194
1212.1459,448,1.4452
1212.1502,450,1.4516
1212.1545,453,1.4613
1212.1588,455,1.4677
1212.1631,456,1.471
1212.1673,452,1.4581
1212.1716,457,1.4742
1212.1759,458,1.4774
1212.1802,459,1.4806
1212.1845,460,1.4839
1212.1888,458,1.4774
1212.1931,457,1.4742
1212.1975,456,1.471
1212.2018,455,1.4677
1212.2061,458,1.4774
1212.2104,465,1.5
1212.2148,466,1.5032
1212.2191,468,1.5097
1212.2234,472,1.5226
1212.2277,479,1.5452
1212.232,502,1.6194
1212.2364,517,1.6677
1212.2407,529,1.7065
1212.2451,531,1.7129
1212.2494,526,1.6968
1212.2537,514,1.6581
1212.258,507,1.6355
1212.2624,499,1.6097
1212.2667,496,1.6
1212.271,499,1.6097
1212.2754,491,1.5839
1212.2797,479,1.5452
1212.284,475,1.5323
1212.2884,478,1.5419
1212.2927,479,1.5452
1212.297,476,1.5355
1212.3013,480,1.5484
1212.3056,489,1.5774
1212.3099,503,1.6226
1212.3142,517,1.6677
1212.3185,528,1.7032
1212.3228,536,1.729
1212.3271,545,1.7581
1212.3314,548,1.7677
1212.3357,541,1.7452
1212.34,532,1.7161
1212.3443,521,1.6806
1212.3486,509,1.6419
1212.3529,509,1.6419
1212.3572,508,1.6387
1212.3615,508,1.6387
1212.3658,505,1.629
1212.3701,493,1.5903
1212.3744,483,1.5581
1212.3786,467,1.5065
1212.3829,452,1.4581
1212.3872,449,1.4484
1212.3915,447,1.4419
1212.3959,460,1.4839
1212.4002,448,1.4452
1212.4046,436,1.4065
1212.4089,435,1.4032
1212.4132,442,1.4258
1212.4175,444,1.4323
1212.4219,448,1.4452
1212.4262,452,1.4581
1212.4305,455,1.4677
1212.4349,453,1.4613
1212.4392,449,1.4484
1212.4435,442,1.4258
1212.449,433,1.3968
1212.4535,422,1.3613
1212.4579,433,1.3968
1212.4622,460,1.4839
1212.4665,495,1.5968
1212.4709,550,1.7742
1212.4752,620,2
1212.4795,671,2.1645
1212.4838,629,2.029
1212.4883,519,1.6742
1212.4926,436,1.4065
1212.497,405,1.3065
1212.5013,407,1.3129
1212.5056,398,1.2839
1212.5099,384,1.2387
1212.5141,384,1.2387
1212.5184,414,1.3355
1212.5227,452,1.4581
1212.5271,483,1.5581
1212.5314,499,1.6097
1212.5357,505,1.629
1212.54,507,1.6355
1212.5443,508,1.6387
1212.5486,513,1.6548
1212.5529,519,1.6742
1212.5572,527,1.7
1212.5615,528,1.7032
1212.5658,529,1.7065
1212.5701,524,1.6903
1212.5744,522,1.6839
1212.5787,527,1.7
1212.583,534,1.7226
1212.5873,539,1.7387
1212.5916,544,1.7548
1212.5959,545,1.7581
1212.6001,547,1.7645
1212.6044,551,1.7774
1212.6087,559,1.8032
1212.613,556,1.7935
1212.6173,547,1.7645
1212.6216,539,1.7387
1212.6259,538,1.7355
1212.6302,554,1.7871
1212.6345,557,1.7968
1212.6388,547,1.7645
1212.6431,535,1.7258
1212.6474,547,1.7645
1212.6517,560,1.8065
1212.656,575,1.8548
1212.6602,590,1.9032
1212.6645,593,1.9129
1212.6688,596,1.9226
1212.6731,599,1.9323
1212.6774,602,1.9419
1212.6817,608,1.9613
1212.686,602,1.9419
1212.6904,601,1.9387
1212.6947,596,1.9226
1212.6991,594,1.9161
1212.7034,591,1.9065
1212.7077,585,1.8871
1212.7121,577,1.8613
1212.7164,575,1.8548
1212.7207,577,1.8613
1212.725,574,1.8516
1212.7294,560,1.8065
1212.7337,547,1.7645
1212.738,530,1.7097
1212.7424,514,1.6581
1212.7468,506,1.6323
1212.7512,498,1.6065
1212.7557,494,1.5935
1212.76,487,1.571
1212.7644,477,1.5387
1212.7687,480,1.5484
1212.7731,479,1.5452
1212.7774,471,1.5194
1212.7817,466,1.5032
1212.7861,465,1.5
1212.7905,478,1.5419
1212.7949,487,1.571
1212.7992,490,1.5806
1212.8035,492,1.5871
1212.8077,508,1.6387
1212.812,526,1.6968
1212.8163,525,1.6935
1212.8206,520,1.6774
1212.8249,511,1.6484
1212.8292,517,1.6677
1212.8335,528,1.7032
1212.8378,537,1.7323
1212.8421,541,1.7452
1212.8464,544,1.7548
1212.8507,544,1.7548
1212.855,521,1.6806
1212.8593,490,1.5806
1212.8636,458,1.4774
1212.8679,433,1.3968
1212.8722,416,1.3419
1212.8765,406,1.3097
1212.8808,403,1.3
1212.885,401,1.2935
1212.8893,405,1.3065
1212.8936,415,1.3387
1212.898,424,1.3677
1212.9023,428,1.3806
1212.9066,422,1.3613
1212.911,421,1.3581
1212.9153,425,1.371
1212.9196,434,1.4
1212.924,424,1.3677
1212.9283,415,1.3387
1212.9326,420,1.3548
1212.937,424,1.3677
1212.9413,417,1.3452
1212.9457,406,1.3097
1212.95,407,1.3129
1212.9543,412,1.329
1212.9587,404,1.3032
1212.963,408,1.3161
1212.9673,404,1.3032
1212.9717,404,1.3032
1212.976,409,1.3194
1212.9803,414,1.3355
1212.9846,423,1.3645
1212.989,424,1.3677
1212.9934,434,1.4
1212.9977,461,1.4871
1213.0021,476,1.5355
1213.0064,486,1.5677
1213.0106,493,1.5903
1213.0149,491,1.5839
1213.0192,495,1.5968
1213.0235,494,1.5935
1213.0278,503,1.6226
1213.0321,516,1.6645
1213.0364,520,1.6774
1213.0407,517,1.6677
1213.045,508,1.6387
1213.0493,503,1.6226
1213.0536,503,1.6226
1213.0579,501,1.6161
1213.0622,504,1.6258
1213.0665,510,1.6452
1213.0708,518,1.671
1213.075,504,1.6258
1213.0793,486,1.5677
1213.0836,480,1.5484
1213.0879,480,1.5484
1213.0922,476,1.5355
1213.0965,475,1.5323
1213.1009,469,1.5129
1213.1052,465,1.5
1213.1095,477,1.5387
1213.1139,482,1.5548
1213.1182,478,1.5419
1213.1225,488,1.5742
1213.1269,504,1.6258
1213.1312,509,1.6419
1213.1355,509,1.6419
1213.1398,519,1.6742
1213.1446,529,1.7065
1213.1489,525,1.6935
1213.1533,526,1.6968
1213.1576,536,1.729
1213.1619,523,1.6871
1213.1663,512,1.6516
1213.1706,507,1.6355
1213.1749,512,1.6516
1213.1792,518,1.671
1213.1836,516,1.6645
1213.1879,516,1.6645
1213.1922,515,1.6613
1213.1966,513,1.6548
1213.2009,505,1.629
1213.2052,501,1.6161
1213.2095,497,1.6032
1213.2138,489,1.5774
1213.2181,490,1.5806
1213.2224,484,1.5613
1213.2267,474,1.529
1213.2309,466,1.5032
1213.2352,466,1.5032
1213.2395,473,1.5258
1213.2438,479,1.5452
1213.2481,481,1.5516
1213.2524,478,1.5419
1213.2567,477,1.5387
1213.261,481,1.5516
1213.2653,486,1.5677
1213.2696,494,1.5935
1213.2739,504,1.6258
1213.2782,513,1.6548
1213.2825,513,1.6548
1213.2868,519,1.6742
1213.291,522,1.6839
1213.2953,516,1.6645
1213.2996,527,1.7
1213.304,547,1.7645
1213.3083,573,1.8484
1213.3127,604,1.9484
1213.317,666,2.1484
1213.3214,720,2.3226
1213.3257,715,2.3065
1213.33,627,2.0226
1213.3344,529,1.7065
1213.3387,475,1.5323
1213.343,463,1.4935
1213.3481,449,1.4484
1213.3525,423,1.3645
1213.357,415,1.3387
1213.3613,429,1.3839
1213.3657,470,1.5161
1213.3701,500,1.6129
1213.3744,518,1.671
1213.3787,523,1.6871
1213.383,520,1.6774
1213.3874,526,1.6968
1213.3917,532,1.7161
1213.3961,529,1.7065
1213.4004,526,1.6968
1213.4047,534,1.7226
1213.409,547,1.7645
1213.4134,548,1.7677
1213.4176,545,1.7581
1213.4219,537,1.7323
1213.4265,532,1.7161
1213.4309,531,1.7129
1213.4352,527,1.7
1213.4395,527,1.7
1213.4438,516,1.6645
1213.4481,534,1.7226
1213.4524,564,1.8194
1213.4567,578,1.8645
1213.461,563,1.8161
1213.4653,555,1.7903
1213.4696,550,1.7742
1213.4739,548,1.7677
1213.4782,552,1.7806
1213.4825,543,1.7516
1213.4868,532,1.7161
1213.4911,527,1.7
1213.4954,523,1.6871
1213.4997,518,1.671
1213.504,527,1.7
1213.5085,544,1.7548
1213.5129,550,1.7742
1213.5172,561,1.8097
1213.5214,566,1.8258
1213.5257,566,1.8258
1213.53,567,1.829
1213.5344,570,1.8387
1213.5387,577,1.8613
1213.543,579,1.8677
1213.5473,570,1.8387
1213.5516,567,1.829
1213.5559,554,1.7871
1213.5602,542,1.7484
1213.5645,530,1.7097
1213.5688,522,1.6839
1213.5731,520,1.6774
1213.5774,509,1.6419
1213.5817,509,1.6419
1213.586,500,1.6129
1213.5907,487,1.571
1213.595,483,1.5581
1213.5993,471,1.5194
1213.6036,460,1.4839
1213.608,441,1.4226
1213.6123,430,1.3871
1213.6166,431,1.3903
1213.6209,423,1.3645
1213.6252,419,1.3516
1213.6295,414,1.3355
1213.6338,411,1.3258
1213.6381,416,1.3419
1213.6424,428,1.3806
1213.6469,441,1.4226
1213.6513,455,1.4677
1213.6563,457,1.4742
1213.6607,456,1.471
1213.6651,458,1.4774
1213.6694,468,1.5097
1213.6737,464,1.4968
1213.678,465,1.5
1213.6823,464,1.4968
1213.6866,453,1.4613
1213.6909,454,1.4645
1213.6952,457,1.4742
1213.6995,464,1.4968
1213.7039,470,1.5161
1213.7082,476,1.5355
1213.7125,482,1.5548
1213.7168,479,1.5452
1213.7211,469,1.5129
1213.7254,462,1.4903
1213.7297,459,1.4806
1213.7343,458,1.4774
1213.7386,467,1.5065
1213.7429,477,1.5387
1213.7472,478,1.5419
1213.7517,476,1.5355
1213.7561,477,1.5387
1213.7604,476,1.5355
1213.7647,477,1.5387
1213.769,477,1.5387
1213.7733,483,1.5581
1213.7775,496,1.6
1213.7819,496,1.6
1213.7862,494,1.5935
1213.7905,495,1.5968
1213.7947,493,1.5903
1213.7996,492,1.5871
1213.8039,481,1.5516
1213.8082,459,1.4806
1213.8125,448,1.4452
1213.8168,449,1.4484
1213.8212,442,1.4258
1213.8254,458,1.4774
1213.8297,463,1.4935
1213.834,453,1.4613
1213.8383,445,1.4355
1213.8427,449,1.4484
1213.847,459,1.4806
1213.8513,464,1.4968
1213.8556,462,1.4903
1213.8599,461,1.4871
1213.8642,460,1.4839
1213.8685,461,1.4871
1213.8728,464,1.4968
1213.8771,466,1.5032
1213.8814,475,1.5323
1213.8857,474,1.529
1213.89,471,1.5194
1213.8943,470,1.5161
1213.8986,472,1.5226
1213.9029,469,1.5129
1213.9073,471,1.5194
1213.9116,480,1.5484
1213.9158,479,1.5452
1213.9201,468,1.5097
1213.9245,473,1.5258
1213.9288,481,1.5516
1213.9331,478,1.5419
1213.9373,468,1.5097
1213.9416,473,1.5258
1213.946,479,1.5452
1213.9503,484,1.5613
1213.9546,481,1.5516
1213.9589,478,1.5419
1213.9632,479,1.5452
1213.9675,481,1.5516
1213.9718,493,1.5903
1213.9761,494,1.5935
1213.9804,483,1.5581
1213.9847,473,1.5258
1213.989,476,1.5355
1213.9933,485,1.5645
1213.9976,490,1.5806
1214.0019,496,1.6
1214.0062,501,1.6161
1214.0105,511,1.6484
1214.0148,525,1.6935
1214.0191,519,1.6742
1214.0239,498,1.6065
1214.0282,492,1.5871
1214.0325,487,1.571
1214.0368,482,1.5548
1214.0411,481,1.5516
1214.0455,480,1.5484
1214.0497,491,1.5839
1214.054,500,1.6129
1214.0584,506,1.6323
1214.0627,509,1.6419
1214.067,510,1.6452
1214.0713,513,1.6548
1214.0756,511,1.6484
1214.0799,522,1.6839
1214.0842,532,1.7161
1214.0885,533,1.7194
1214.0928,535,1.7258
1214.0971,539,1.7387
1214.1014,547,1.7645
1214.1058,554,1.7871
1214.1101,558,1.8
1214.1144,544,1.7548
1214.1186,524,1.6903
1214.123,514,1.6581
1214.1273,531,1.7129
1214.1316,554,1.7871
1214.1359,585,1.8871
1214.1402,642,2.071
1214.1445,700,2.2581
1214.1488,713,2.3
1214.1531,643,2.0742
1214.1574,554,1.7871
1214.1617,502,1.6194
1214.166,504,1.6258
1214.1703,511,1.6484
1214.1746,483,1.5581
1214.1789,462,1.4903
1214.1832,474,1.529
1214.1875,494,1.5935
1214.1918,522,1.6839
1214.1961,539,1.7387
1214.2004,540,1.7419
1214.2048,531,1.7129
1214.2092,530,1.7097
1214.2135,535,1.7258
1214.2177,535,1.7258
1214.222,534,1.7226
1214.2263,530,1.7097
1214.2307,528,1.7032
1214.235,528,1.7032
1214.2393,532,1.7161
1214.2436,537,1.7323
1214.2489,528,1.7032
1214.2534,521,1.6806
1214.2577,522,1.6839
1214.2621,520,1.6774
1214.2664,525,1.6935
1214.2707,535,1.7258
1214.275,538,1.7355
1214.2793,531,1.7129
1214.2836,527,1.7
1214.2879,528,1.7032
1214.2922,522,1.6839
1214.2965,514,1.6581
1214.3008,519,1.6742
1214.3051,512,1.6516
1214.3103,508,1.6387
1214.3147,533,1.7194
1214.319,550,1.7742
1214.3232,576,1.8581
1214.3276,595,1.9194
1214.3319,587,1.8935
1214.3362,582,1.8774
1214.3405,586,1.8903
1214.3448,596,1.9226
1214.3491,607,1.9581
1214.3534,616,1.9871
1214.3577,624,2.0129
1214.362,622,2.0065
1214.3663,609,1.9645
1214.3706,616,1.9871
1214.3749,640,2.0645
1214.3792,657,2.1194
1214.3835,661,2.1323
1214.3878,644,2.0774
1214.3921,630,2.0323
1214.3964,626,2.0194
1214.4007,614,1.9806
1214.405,611,1.971
1214.4093,596,1.9226
1214.4136,575,1.8548
1214.4179,553,1.7839
1214.4222,530,1.7097
1214.4265,502,1.6194
1214.4308,453,1.4613
1214.4351,425,1.371
1214.4394,414,1.3355
1214.4437,433,1.3968
1214.448,460,1.4839
1214.4523,471,1.5194
1214.4566,481,1.5516
1214.461,478,1.5419
1214.4652,468,1.5097
1214.4695,460,1.4839
1214.4739,470,1.5161
1214.4782,480,1.5484
1214.4824,482,1.5548
1214.4867,483,1.5581
1214.491,479,1.5452
1214.4954,478,1.5419
1214.4996,477,1.5387
1214.5039,479,1.5452
1214.5082,486,1.5677
1214.5126,482,1.5548
1214.5169,475,1.5323
1214.5212,471,1.5194
1214.5255,470,1.5161
1214.5298,473,1.5258
1214.5346,472,1.5226
1214.539,477,1.5387
1214.5433,470,1.5161
1214.5477,463,1.4935
1214.5522,472,1.5226
1214.5566,484,1.5613
1214.5609,487,1.571
1214.5653,488,1.5742
1214.5695,483,1.5581
1214.5738,489,1.5774
1214.5782,494,1.5935
1214.5825,490,1.5806
1214.5868,475,1.5323
1214.591,469,1.5129
1214.5953,459,1.4806
1214.5997,453,1.4613
1214.604,455,1.4677
1214.6083,436,1.4065
1214.6126,424,1.3677
1214.617,422,1.3613
1214.6213,428,1.3806
1214.6255,447,1.4419
1214.6298,462,1.4903
1214.6341,455,1.4677
1214.6385,422,1.3613
1214.6428,392,1.2645
1214.6471,380,1.2258
1214.6513,385,1.2419
1214.6556,396,1.2774
1214.66,399,1.2871
1214.6643,399,1.2871
1214.6686,405,1.3065
1214.6729,428,1.3806
1214.6772,455,1.4677
1214.6815,473,1.5258
1214.6858,470,1.5161
1214.6901,450,1.4516
1214.6944,449,1.4484
1214.6987,454,1.4645
1214.703,460,1.4839
1214.7073,478,1.5419
1214.7116,486,1.5677
1214.716,500,1.6129
1214.7203,496,1.6
1214.7246,499,1.6097
1214.7289,507,1.6355
1214.7332,509,1.6419
1214.7375,506,1.6323
1214.7418,504,1.6258
1214.7461,512,1.6516
1214.7504,513,1.6548
1214.7547,515,1.6613
1214.7599,487,1.571
1214.7642,468,1.5097
1214.7685,470,1.5161
1214.7729,478,1.5419
1214.7772,479,1.5452
1214.7815,481,1.5516
1214.7858,497,1.6032
1214.7901,515,1.6613
1214.7944,528,1.7032
1214.7987,539,1.7387
1214.803,544,1.7548
1214.8073,542,1.7484
1214.8116,538,1.7355
1214.8159,531,1.7129
1214.8207,520,1.6774
1214.825,515,1.6613
1214.8293,506,1.6323
1214.8336,502,1.6194
1214.8379,503,1.6226
1214.8422,501,1.6161
1214.8465,508,1.6387
1214.8508,508,1.6387
1214.8551,512,1.6516
1214.8594,501,1.6161
1214.8637,503,1.6226
1214.868,495,1.5968
1214.8723,472,1.5226
1214.8766,461,1.4871
1214.8809,449,1.4484
1214.8852,456,1.471
1214.8895,469,1.5129
1214.8938,470,1.5161
1214.8982,484,1.5613
1214.9025,491,1.5839
1214.9068,498,1.6065
1214.9111,496,1.6
1214.9154,493,1.5903
1214.9197,488,1.5742
1214.924,475,1.5323
1214.9283,478,1.5419
1214.9326,489,1.5774
1214.9369,502,1.6194
1214.9412,523,1.6871
1214.9455,567,1.829
1214.9498,642,2.071
1214.9541,712,2.2968
1214.9584,718,2.3161
1214.9627,623,2.0097
1214.9671,510,1.6452
1214.9714,453,1.4613
1214.9757,449,1.4484
1214.98,432,1.3935
1214.9843,406,1.3097
1214.9886,409,1.3194
1214.9929,422,1.3613
1214.9971,462,1.4903
1215.0014,502,1.6194
1215.0058,522,1.6839
1215.0103,523,1.6871
1215.0146,525,1.6935
1215.0189,525,1.6935
1215.0232,532,1.7161
1215.0275,539,1.7387
1215.0318,540,1.7419
1215.0361,538,1.7355
1215.0409,531,1.7129
1215.0453,508,1.6387
1215.0496,486,1.5677
1215.0539,477,1.5387
1215.0581,485,1.5645
1215.0624,487,1.571
1215.0668,486,1.5677
1215.0711,488,1.5742
1215.0754,509,1.6419
1215.0797,526,1.6968
1215.084,530,1.7097
1215.0883,532,1.7161
1215.0926,537,1.7323
1215.0969,545,1.7581
1215.1012,548,1.7677
1215.1055,542,1.7484
1215.1098,540,1.7419
1215.1141,550,1.7742
1215.1184,552,1.7806
1215.1227,550,1.7742
1215.1271,548,1.7677
1215.1314,544,1.7548
1215.1357,539,1.7387
1215.14,541,1.7452
1215.1443,553,1.7839
1215.1487,570,1.8387
1215.1531,587,1.8935
1215.1575,592,1.9097
1215.1618,596,1.9226
1215.1662,592,1.9097
1215.1705,589,1.9
1215.1748,601,1.9387
1215.1791,611,1.971
1215.1834,627,2.0226
1215.1882,637,2.0548
1215.1925,638,2.0581
1215.1968,626,2.0194
1215.2011,616,1.9871
1215.2054,596,1.9226
1215.2097,576,1.8581
1215.214,557,1.7968
1215.2183,540,1.7419
1215.2226,533,1.7194
1215.2269,539,1.7387
1215.2313,540,1.7419
1215.2356,537,1.7323
1215.2399,528,1.7032
1215.2441,531,1.7129
1215.2484,527,1.7
1215.2528,512,1.6516
1215.2571,462,1.4903
1215.2614,436,1.4065
1215.2657,441,1.4226
1215.27,449,1.4484
1215.2743,463,1.4935
1215.2786,457,1.4742
1215.2829,447,1.4419
1215.2872,434,1.4
1215.2915,431,1.3903
1215.2958,430,1.3871
1215.3001,425,1.371
1215.3044,426,1.3742
1215.3087,432,1.3935
1215.313,437,1.4097
1215.3173,435,1.4032
1215.3216,425,1.371
1215.3259,424,1.3677
1215.3302,426,1.3742
1215.3346,433,1.3968
1215.3389,434,1.4
1215.3432,420,1.3548
1215.3475,418,1.3484
1215.3518,421,1.3581
1215.3561,429,1.3839
1215.3604,440,1.4194
1215.3647,443,1.429
1215.369,446,1.4387
1215.3733,453,1.4613
1215.3776,464,1.4968
1215.3819,476,1.5355
1215.3862,492,1.5871
1215.3905,507,1.6355
1215.3948,509,1.6419
1215.3991,516,1.6645
1215.4034,513,1.6548
1215.4077,503,1.6226
1215.412,493,1.5903
1215.4164,478,1.5419
1215.4207,470,1.5161
1215.425,474,1.529
1215.4293,490,1.5806
1215.4336,485,1.5645
1215.4379,471,1.5194
1215.4422,471,1.5194
1215.4467,470,1.5161
1215.4511,464,1.4968
1215.4555,460,1.4839
1215.4598,455,1.4677
1215.4641,456,1.471
1215.4684,455,1.4677
1215.4727,459,1.4806
1215.4771,454,1.4645
1215.4814,448,1.4452
1215.4857,447,1.4419
1215.4904,439,1.4161
1215.4947,435,1.4032
1215.499,431,1.3903
1215.5033,431,1.3903
1215.5076,427,1.3774
1215.5119,425,1.371
1215.5162,419,1.3516
1215.5206,413,1.3323
1215.5249,415,1.3387
1215.5292,420,1.3548
1215.5335,423,1.3645
1215.5378,425,1.371
1215.5421,413,1.3323
1215.5464,431,1.3903
1215.5507,451,1.4548
1215.555,467,1.5065
1215.5593,468,1.5097
1215.5636,456,1.471
1215.5686,461,1.4871
1215.573,466,1.5032
1215.5775,450,1.4516
1215.5819,434,1.4
1215.5863,418,1.3484
1215.5906,411,1.3258
1215.5949,409,1.3194
1215.5992,408,1.3161
1215.6034,410,1.3226
1215.6077,427,1.3774
1215.612,442,1.4258
1215.6162,439,1.4161
1215.6205,440,1.4194
1215.6248,441,1.4226
1215.629,444,1.4323
1215.6333,448,1.4452
1215.6376,438,1.4129
1215.6418,435,1.4032
1215.6461,440,1.4194
1215.6503,441,1.4226
1215.6546,441,1.4226
1215.6589,447,1.4419
1215.6631,455,1.4677
1215.6674,463,1.4935
1215.6716,463,1.4935
1215.6759,464,1.4968
1215.6802,466,1.5032
1215.6844,475,1.5323
1215.6887,481,1.5516
1215.693,486,1.5677
1215.6972,483,1.5581
1215.7015,485,1.5645
1215.7057,495,1.5968
1215.71,507,1.6355
1215.7144,506,1.6323
1215.7186,514,1.6581
1215.7229,532,1.7161
1215.7272,535,1.7258
1215.7315,535,1.7258
1215.7358,527,1.7
1215.7402,531,1.7129
1215.7444,558,1.8
1215.7487,619,1.9968
1215.753,685,2.2097
1215.7573,746,2.4065
1215.7616,762,2.4581
1215.7659,672,2.1677
1215.7702,545,1.7581
1215.7745,463,1.4935
1215.7788,443,1.429
1215.7831,444,1.4323
1215.7874,427,1.3774
1215.7917,405,1.3065
1215.7959,407,1.3129
1215.8002,433,1.3968
1215.8045,472,1.5226
1215.8088,491,1.5839
1215.8131,500,1.6129
1215.8174,502,1.6194
1215.8217,491,1.5839
1215.826,482,1.5548
1215.8303,471,1.5194
1215.8346,461,1.4871
1215.8389,458,1.4774
1215.8433,461,1.4871
1215.8475,462,1.4903
1215.8518,466,1.5032
1215.8561,472,1.5226
1215.8604,477,1.5387
1215.8647,484,1.5613
1215.869,490,1.5806
1215.8733,491,1.5839
1215.8776,495,1.5968
1215.8819,499,1.6097
1215.8862,515,1.6613
1215.8905,517,1.6677
1215.8948,521,1.6806
1215.8991,515,1.6613
1215.9034,502,1.6194
1215.9077,505,1.629
1215.912,512,1.6516
1215.9163,516,1.6645
1215.9206,525,1.6935
1215.9249,533,1.7194
1215.9292,543,1.7516
1215.9336,548,1.7677
1215.9379,547,1.7645
1215.9422,549,1.771
1215.9465,548,1.7677
1215.9508,550,1.7742
1215.955,546,1.7613
1215.9593,553,1.7839
1215.9637,560,1.8065
1215.968,555,1.7903
1215.9723,551,1.7774
1215.9766,549,1.771
1215.9808,543,1.7516
1215.9851,538,1.7355
1215.9894,540,1.7419
1215.9937,543,1.7516
1215.998,540,1.7419
1216.0023,544,1.7548
1216.0068,550,1.7742
1216.0112,546,1.7613
1216.0157,515,1.6613
1216.0231,469,1.5129
1216.0276,458,1.4774
1216.032,447,1.4419
1216.0362,429,1.3839
1216.0404,430,1.3871
1216.0447,429,1.3839
1216.049,420,1.3548
1216.0534,415,1.3387
1216.0576,413,1.3323
1216.0619,409,1.3194
1216.0661,404,1.3032
1216.0704,412,1.329
1216.0746,415,1.3387
1216.0789,411,1.3258
1216.0831,417,1.3452
1216.0874,423,1.3645
1216.0916,431,1.3903
1216.0959,435,1.4032
1216.1001,438,1.4129
1216.1043,448,1.4452
1216.1086,446,1.4387
1216.1128,446,1.4387
1216.1171,443,1.429
1216.1213,448,1.4452
1216.1256,456,1.471
1216.1299,469,1.5129
1216.1342,471,1.5194
1216.1385,469,1.5129
1216.1428,468,1.5097
1216.1471,467,1.5065
1216.1514,470,1.5161
1216.1556,482,1.5548
1216.1599,484,1.5613
1216.1642,477,1.5387
1216.1684,467,1.5065
1216.1727,472,1.5226
1216.177,473,1.5258
1216.1813,473,1.5258
1216.1856,476,1.5355
1216.1898,481,1.5516
1216.1941,484,1.5613
1216.1984,487,1.571
1216.2026,487,1.571
1216.2069,486,1.5677
1216.2112,483,1.5581
1216.2155,476,1.5355
1216.2198,468,1.5097
1216.2241,463,1.4935
1216.2284,470,1.5161
1216.2327,469,1.5129
1216.2371,470,1.5161
1216.2414,464,1.4968
1216.2457,472,1.5226
1216.25,478,1.5419
1216.2543,484,1.5613
1216.2586,497,1.6032
1216.2629,500,1.6129
1216.2672,499,1.6097
1216.2715,506,1.6323
1216.2758,511,1.6484
1216.2802,522,1.6839
1216.2845,542,1.7484
1216.2888,559,1.8032
1216.2931,557,1.7968
1216.2974,548,1.7677
1216.3017,525,1.6935
1216.306,502,1.6194
1216.3103,485,1.5645
1216.3146,473,1.5258
1216.3189,476,1.5355
1216.3233,485,1.5645
1216.3276,490,1.5806
1216.3319,493,1.5903
1216.3362,497,1.6032
1216.3405,506,1.6323
1216.3448,509,1.6419
1216.3492,514,1.6581
1216.3536,514,1.6581
1216.3579,501,1.6161
1216.3623,504,1.6258
1216.3666,508,1.6387
1216.3715,515,1.6613
1216.3759,515,1.6613
1216.3802,514,1.6581
1216.3846,517,1.6677
1216.3889,517,1.6677
1216.3932,521,1.6806
1216.3974,543,1.7516
1216.4018,561,1.8097
1216.4061,571,1.8419
1216.4104,570,1.8387
1216.4147,563,1.8161
1216.419,541,1.7452
1216.4233,517,1.6677
1216.4276,507,1.6355
1216.4319,511,1.6484
1216.4362,510,1.6452
1216.4404,503,1.6226
1216.4447,498,1.6065
1216.4489,493,1.5903
1216.4532,495,1.5968
1216.4575,494,1.5935
1216.4618,493,1.5903
1216.466,495,1.5968
1216.4703,488,1.5742
1216.4745,476,1.5355
1216.4788,466,1.5032
1216.4831,463,1.4935
1216.4874,474,1.529
1216.4916,481,1.5516
1216.4959,485,1.5645
1216.5002,482,1.5548
1216.5044,482,1.5548
1216.5087,478,1.5419
1216.513,474,1.529
1216.5172,471,1.5194
1216.5215,468,1.5097
1216.5258,471,1.5194
1216.5301,495,1.5968
1216.5344,531,1.7129
1216.5387,590,1.9032
1216.543,662,2.1355
1216.5473,707,2.2806
1216.5516,640,2.0645
1216.5559,530,1.7097
1216.5602,452,1.4581
1216.5645,433,1.3968
1216.5688,438,1.4129
1216.5731,425,1.371
1216.5774,407,1.3129
1216.5817,413,1.3323
1216.586,445,1.4355
1216.5903,485,1.5645
1216.5946,511,1.6484
1216.5989,518,1.671
1216.6032,519,1.6742
1216.6075,516,1.6645
1216.6118,515,1.6613
1216.6161,515,1.6613
1216.6204,516,1.6645
1216.6247,510,1.6452
1216.629,510,1.6452
1216.6334,508,1.6387
1216.6377,505,1.629
1216.642,499,1.6097
1216.6463,497,1.6032
1216.6506,504,1.6258
1216.6549,505,1.629
1216.6592,501,1.6161
1216.6635,497,1.6032
1216.6678,491,1.5839
1216.6721,493,1.5903
1216.6764,498,1.6065
1216.6807,504,1.6258
1216.685,509,1.6419
1216.6893,514,1.6581
1216.6936,517,1.6677
1216.6979,516,1.6645
1216.7022,510,1.6452
1216.7065,505,1.629
1216.7109,509,1.6419
1216.7152,512,1.6516
1216.7195,515,1.6613
1216.7238,522,1.6839
1216.7281,526,1.6968
1216.7325,533,1.7194
1216.7368,539,1.7387
1216.7411,546,1.7613
1216.7454,556,1.7935
1216.7497,555,1.7903
1216.754,548,1.7677
1216.7583,544,1.7548
1216.7626,546,1.7613
1216.767,549,1.771
1216.7713,550,1.7742
1216.7756,553,1.7839
1216.7799,548,1.7677
1216.7843,538,1.7355
1216.7886,529,1.7065
1216.7929,517,1.6677
1216.7972,507,1.6355
1216.8015,496,1.6
1216.8058,482,1.5548
1216.8101,467,1.5065
1216.8144,450,1.4516
1216.8187,439,1.4161
1216.823,431,1.3903
1216.8273,421,1.3581
1216.8317,408,1.3161
1216.836,395,1.2742
1216.8403,389,1.2548
1216.8446,386,1.2452
1216.8489,391,1.2613
1216.8532,397,1.2806
1216.8575,400,1.2903
1216.8618,394,1.271
1216.8661,393,1.2677
1216.8704,402,1.2968
1216.8747,411,1.3258
1216.879,419,1.3516
1216.8833,418,1.3484
1216.8876,417,1.3452
1216.8919,423,1.3645
1216.8962,424,1.3677
1216.9005,418,1.3484
1216.9048,420,1.3548
1216.9091,429,1.3839
1216.9134,436,1.4065
1216.9177,436,1.4065
1216.922,439,1.4161
1216.9264,441,1.4226
1216.9307,447,1.4419
1216.935,451,1.4548
1216.9393,454,1.4645
1216.9436,453,1.4613
1216.948,453,1.4613
1216.9524,458,1.4774
1216.9567,462,1.4903
1216.961,466,1.5032
1216.9654,472,1.5226
1216.9696,473,1.5258
1216.974,475,1.5323
1216.9783,476,1.5355
1216.9826,474,1.529
1216.9869,472,1.5226
1216.9912,475,1.5323
1216.9955,481,1.5516
1216.9998,484,1.5613
1217.0042,488,1.5742
1217.0085,490,1.5806
1217.0129,488,1.5742
1217.0172,493,1.5903
1217.0215,496,1.6
1217.0258,494,1.5935
1217.0301,502,1.6194
1217.0344,503,1.6226
1217.0387,498,1.6065
1217.0429,499,1.6097
1217.0472,503,1.6226
1217.0514,503,1.6226
1217.0557,502,1.6194
1217.06,503,1.6226
1217.0643,504,1.6258
1217.0685,506,1.6323
1217.0728,501,1.6161
1217.0771,494,1.5935
1217.0814,488,1.5742
1217.0856,484,1.5613
1217.0899,478,1.5419
1217.0942,472,1.5226
1217.0985,473,1.5258
1217.1028,481,1.5516
1217.1071,486,1.5677
1217.1114,484,1.5613
1217.1157,484,1.5613
1217.1199,486,1.5677
1217.1242,488,1.5742
1217.1286,486,1.5677
1217.1329,487,1.571
1217.1372,487,1.571
1217.1416,487,1.571
1217.1459,493,1.5903
1217.1502,501,1.6161
1217.1545,505,1.629
1217.1588,515,1.6613
1217.1631,516,1.6645
1217.1674,512,1.6516
1217.1717,508,1.6387
1217.176,506,1.6323
1217.1803,500,1.6129
1217.1846,497,1.6032
1217.1889,499,1.6097
1217.1933,494,1.5935
1217.1976,480,1.5484
1217.2019,476,1.5355
1217.2062,474,1.529
1217.2105,481,1.5516
1217.2148,479,1.5452
1217.2191,470,1.5161
1217.2234,465,1.5
1217.2277,466,1.5032
1217.232,467,1.5065
1217.2364,471,1.5194
1217.2407,470,1.5161
1217.245,475,1.5323
1217.2494,473,1.5258
1217.2538,475,1.5323
1217.2582,478,1.5419
1217.2625,483,1.5581
1217.2668,489,1.5774
1217.2711,497,1.6032
1217.2754,502,1.6194
1217.2797,500,1.6129
1217.284,497,1.6032
1217.2884,496,1.6
1217.2927,497,1.6032
1217.297,496,1.6
1217.3013,497,1.6032
1217.3056,511,1.6484
1217.3099,532,1.7161
1217.3142,573,1.8484
1217.3185,636,2.0516
1217.3228,701,2.2613
1217.3272,689,2.2226
1217.3315,598,1.929
1217.3358,504,1.6258
1217.3401,460,1.4839
1217.3444,462,1.4903
1217.3487,461,1.4871
1217.353,440,1.4194
1217.3572,434,1.4
1217.3615,449,1.4484
1217.3658,484,1.5613
1217.3701,520,1.6774
1217.3743,542,1.7484
1217.3786,557,1.7968
1217.3829,558,1.8
1217.3872,555,1.7903
1217.3915,552,1.7806
1217.3957,551,1.7774
1217.4,552,1.7806
1217.4043,552,1.7806
1217.4086,555,1.7903
1217.4129,561,1.8097
1217.4171,560,1.8065
1217.4214,554,1.7871
1217.4257,554,1.7871
1217.43,554,1.7871
1217.4342,554,1.7871
1217.4386,556,1.7935
1217.4429,553,1.7839
1217.4472,551,1.7774
1217.4515,555,1.7903
1217.4558,556,1.7935
1217.4601,546,1.7613
1217.4645,545,1.7581
1217.4688,551,1.7774
1217.4731,560,1.8065
1217.4773,566,1.8258
1217.4816,568,1.8323
1217.4859,574,1.8516
1217.4903,586,1.8903
1217.4946,595,1.9194
1217.4989,592,1.9097
1217.5032,589,1.9
1217.5075,588,1.8968
1217.5118,593,1.9129
1217.5161,593,1.9129
1217.5204,596,1.9226
1217.5247,591,1.9065
1217.529,593,1.9129
1217.5333,602,1.9419
1217.5376,607,1.9581
1217.5419,604,1.9484
1217.5462,600,1.9355
1217.5505,599,1.9323
1217.5549,600,1.9355
1217.5592,593,1.9129
1217.5635,584,1.8839
1217.5678,572,1.8452
1217.5721,557,1.7968
1217.5764,536,1.729
1217.5807,519,1.6742
1217.585,507,1.6355
1217.5893,497,1.6032
1217.5936,483,1.5581
1217.5979,471,1.5194
1217.6022,458,1.4774
1217.6065,451,1.4548
1217.6108,439,1.4161
1217.6151,436,1.4065
1217.6194,432,1.3935
1217.6237,433,1.3968
1217.628,437,1.4097
1217.6323,440,1.4194
1217.6366,440,1.4194
1217.6409,437,1.4097
1217.6452,434,1.4
1217.6495,432,1.3935
1217.6538,429,1.3839
1217.6581,428,1.3806
1217.6624,432,1.3935
1217.6667,445,1.4355
1217.671,451,1.4548
1217.6753,449,1.4484
1217.6796,450,1.4516
1217.6839,455,1.4677
1217.6882,463,1.4935
1217.6925,465,1.5
1217.6968,465,1.5
1217.7011,464,1.4968
1217.7054,466,1.5032
1217.7097,473,1.5258
1217.714,479,1.5452
1217.7183,485,1.5645
1217.7226,486,1.5677
1217.7269,486,1.5677
1217.7312,494,1.5935
1217.7355,496,1.6
1217.7398,494,1.5935
1217.7441,493,1.5903
1217.7484,491,1.5839
1217.7527,493,1.5903
1217.757,497,1.6032
1217.7613,500,1.6129
1217.7656,498,1.6065
1217.7699,498,1.6065
1217.7742,494,1.5935
1217.7785,489,1.5774
1217.7828,484,1.5613
1217.7871,480,1.5484
1217.7914,476,1.5355
1217.7956,473,1.5258
1217.8,475,1.5323
1217.8042,482,1.5548
1217.8085,481,1.5516
1217.8128,476,1.5355
1217.8171,474,1.529
1217.8214,478,1.5419
1217.8257,487,1.571
1217.83,483,1.5581
1217.8343,481,1.5516
1217.8386,479,1.5452
1217.843,482,1.5548
1217.8474,481,1.5516
1217.8518,485,1.5645
1217.8563,490,1.5806
1217.8606,486,1.5677
1217.8649,482,1.5548
1217.8692,483,1.5581
1217.8735,486,1.5677
1217.8778,486,1.5677
1217.8821,489,1.5774
1217.8864,492,1.5871
1217.8907,488,1.5742
1217.8949,492,1.5871
1217.8992,495,1.5968
1217.9035,496,1.6
1217.9078,498,1.6065
1217.9121,498,1.6065
1217.9164,499,1.6097
1217.9207,498,1.6065
1217.925,501,1.6161
1217.9293,502,1.6194
1217.9336,505,1.629
1217.9378,499,1.6097
1217.9421,489,1.5774
1217.9464,489,1.5774
1217.9506,488,1.5742
1217.9549,485,1.5645
1217.9592,479,1.5452
1217.9635,476,1.5355
1217.9677,475,1.5323
1217.9719,481,1.5516
1217.9768,491,1.5839
1217.9811,502,1.6194
1217.9854,506,1.6323
1217.9897,510,1.6452
1217.9939,515,1.6613
1217.9982,523,1.6871
1218.0024,525,1.6935
1218.0067,519,1.6742
1218.0109,516,1.6645
1218.0152,512,1.6516
1218.0195,514,1.6581
1218.0237,518,1.671
1218.028,525,1.6935
1218.0323,525,1.6935
1218.0367,520,1.6774
1218.0409,519,1.6742
1218.0453,516,1.6645
1218.0495,510,1.6452
1218.0538,506,1.6323
1218.0581,499,1.6097
1218.0624,495,1.5968
1218.0667,494,1.5935
1218.071,495,1.5968
1218.0753,495,1.5968
1218.0796,497,1.6032
1218.0839,501,1.6161
1218.0882,505,1.629
1218.0925,513,1.6548
1218.0968,511,1.6484
1218.1011,507,1.6355
1218.1054,502,1.6194
1218.1097,500,1.6129
1218.114,504,1.6258
1218.1183,512,1.6516
1218.1226,534,1.7226
1218.127,575,1.8548
1218.1313,646,2.0839
1218.1356,718,2.3161
1218.1399,716,2.3097
1218.1442,623,2.0097
1218.1486,521,1.6806
1218.153,474,1.529
1218.1574,467,1.5065
1218.1616,451,1.4548
1218.1659,429,1.3839
1218.1703,415,1.3387
1218.1745,433,1.3968
1218.1788,462,1.4903
1218.1831,492,1.5871
1218.1874,501,1.6161
1218.1917,503,1.6226
1218.196,501,1.6161
1218.2003,498,1.6065
1218.2046,496,1.6
1218.2089,498,1.6065
1218.2132,501,1.6161
1218.2175,504,1.6258
1218.2218,506,1.6323
1218.2261,509,1.6419
1218.2304,508,1.6387
1218.2347,508,1.6387
1218.2391,516,1.6645
1218.2434,522,1.6839
1218.2476,525,1.6935
1218.2519,528,1.7032
1218.2562,529,1.7065
1218.2604,533,1.7194
1218.2647,540,1.7419
1218.269,544,1.7548
1218.2732,542,1.7484
1218.2775,540,1.7419
1218.2818,547,1.7645
1218.286,558,1.8
1218.2903,573,1.8484
1218.2946,582,1.8774
1218.2988,588,1.8968
1218.3031,584,1.8839
1218.3074,583,1.8806
1218.3117,581,1.8742
1218.3159,577,1.8613
1218.3202,575,1.8548
1218.3245,578,1.8645
1218.3287,579,1.8677
1218.333,567,1.829
1218.3372,562,1.8129
1218.3415,573,1.8484
1218.3458,579,1.8677
1218.3501,585,1.8871
1218.3544,581,1.8742
1218.3587,572,1.8452
1218.363,567,1.829
1218.3673,562,1.8129
1218.3715,558,1.8
1218.3758,550,1.7742
1218.3801,539,1.7387
1218.3844,529,1.7065
1218.3887,520,1.6774
1218.393,506,1.6323
1218.3973,491,1.5839
1218.4016,478,1.5419
1218.4059,469,1.5129
1218.4102,463,1.4935
1218.4144,448,1.4452
1218.4188,433,1.3968
1218.4231,424,1.3677
1218.4274,415,1.3387
1218.4317,413,1.3323
1218.436,413,1.3323
1218.4403,414,1.3355
1218.4446,414,1.3355
1218.4488,414,1.3355
1218.4532,412,1.329
1218.4574,415,1.3387
1218.4617,420,1.3548
1218.466,421,1.3581
1218.4703,423,1.3645
1218.4746,424,1.3677
1218.4789,421,1.3581
1218.4832,426,1.3742
1218.4875,430,1.3871
1218.4918,430,1.3871
1218.4961,432,1.3935
1218.5004,431,1.3903
1218.5047,433,1.3968
1218.5089,431,1.3903
1218.5132,435,1.4032
1218.5175,437,1.4097
1218.5218,438,1.4129
1218.5261,443,1.429
1218.5304,447,1.4419
1218.5347,451,1.4548
1218.539,452,1.4581
1218.5433,453,1.4613
1218.5476,452,1.4581
1218.5519,453,1.4613
1218.5562,454,1.4645
1218.5604,452,1.4581
1218.5647,457,1.4742
1218.569,457,1.4742
1218.5733,452,1.4581
1218.5776,449,1.4484
1218.5819,449,1.4484
1218.5862,454,1.4645
1218.5904,456,1.471
1218.5947,460,1.4839
1218.599,457,1.4742
1218.6033,456,1.471
1218.6076,462,1.4903
1218.6119,464,1.4968
1218.6162,468,1.5097
1218.6205,467,1.5065
1218.6248,466,1.5032
1218.629,467,1.5065
1218.6333,469,1.5129
1218.6376,471,1.5194
1218.6419,473,1.5258
1218.6462,478,1.5419
1218.6505,481,1.5516
1218.6548,488,1.5742
1218.659,488,1.5742
1218.6634,482,1.5548
1218.6676,481,1.5516
1218.6719,484,1.5613
1218.6762,487,1.571
1218.6805,489,1.5774
1218.6848,488,1.5742
1218.6891,495,1.5968
1218.6934,497,1.6032
1218.6977,499,1.6097
1218.702,502,1.6194
1218.7063,501,1.6161
1218.7106,500,1.6129
1218.7149,501,1.6161
1218.7192,500,1.6129
1218.7234,498,1.6065
1218.7278,502,1.6194
1218.732,505,1.629
1218.7363,504,1.6258
1218.7406,505,1.629
1218.745,503,1.6226
1218.7494,505,1.629
1218.7537,504,1.6258
1218.7581,499,1.6097
1218.7624,499,1.6097
1218.7668,508,1.6387
1218.7711,508,1.6387
1218.7754,512,1.6516
1218.7796,519,1.6742
1218.7839,525,1.6935
1218.7882,528,1.7032
1218.7925,524,1.6903
1218.7968,522,1.6839
1218.8011,514,1.6581
1218.8054,503,1.6226
1218.8097,499,1.6097
1218.814,502,1.6194
1218.8183,508,1.6387
1218.8225,505,1.629
1218.8268,497,1.6032
1218.8311,499,1.6097
1218.8354,506,1.6323
1218.8397,505,1.629
1218.844,507,1.6355
1218.8483,501,1.6161
1218.8526,497,1.6032
1218.8569,495,1.5968
1218.8611,492,1.5871
1218.8654,496,1.6
1218.8697,499,1.6097
1218.8739,493,1.5903
1218.8782,485,1.5645
1218.8825,487,1.571
1218.8867,493,1.5903
1218.891,500,1.6129
1218.8952,502,1.6194
1218.8995,499,1.6097
1218.9037,503,1.6226
1218.908,508,1.6387
1218.9123,508,1.6387
1218.9165,502,1.6194
1218.9208,501,1.6161
1218.9251,523,1.6871
1218.9293,551,1.7774
1218.9336,592,1.9097
1218.9379,659,2.1258
1218.9421,727,2.3452
1218.9464,737,2.3774
1218.9507,646,2.0839
1218.955,541,1.7452
1218.9593,480,1.5484
1218.9636,476,1.5355
1218.9679,469,1.5129
1218.9722,440,1.4194
1218.9765,420,1.3548
1218.9808,428,1.3806
1218.9851,455,1.4677
1218.9894,489,1.5774
1218.9937,508,1.6387
1218.998,518,1.671
1219.0023,521,1.6806
1219.0066,524,1.6903
1219.0109,525,1.6935
1219.0152,528,1.7032
1219.0195,526,1.6968
1219.0238,523,1.6871
1219.0281,524,1.6903
1219.0324,517,1.6677
1219.0367,513,1.6548
1219.0409,509,1.6419
1219.0452,512,1.6516
1219.0496,521,1.6806
1219.0541,529,1.7065
1219.0585,528,1.7032
1219.0627,527,1.7
1219.0671,534,1.7226
1219.0714,543,1.7516
1219.0757,545,1.7581
1219.08,544,1.7548
1219.0842,542,1.7484
1219.0885,544,1.7548
1219.0928,546,1.7613
1219.0972,553,1.7839
1219.1014,553,1.7839
1219.1057,554,1.7871
1219.11,560,1.8065
1219.1143,562,1.8129
1219.1186,562,1.8129
1219.1229,565,1.8226
1219.1271,572,1.8452
1219.1315,575,1.8548
1219.1358,576,1.8581
1219.14,579,1.8677
1219.1444,585,1.8871
1219.1486,589,1.9
1219.1529,588,1.8968
1219.1572,589,1.9
1219.1615,592,1.9097
1219.1658,587,1.8935
1219.1701,592,1.9097
1219.1744,591,1.9065
1219.1787,591,1.9065
1219.183,590,1.9032
1219.1872,586,1.8903
1219.1916,577,1.8613
1219.1958,562,1.8129
1219.2002,547,1.7645
1219.2045,537,1.7323
1219.2087,536,1.729
1219.213,526,1.6968
1219.2173,517,1.6677
1219.2216,500,1.6129
1219.2259,492,1.5871
1219.2301,490,1.5806
1219.2344,490,1.5806
1219.2387,488,1.5742
1219.243,487,1.571
1219.2473,486,1.5677
1219.2516,496,1.6
1219.2559,510,1.6452
1219.2602,513,1.6548
1219.2645,510,1.6452
1219.2688,500,1.6129
1219.273,487,1.571
1219.2773,481,1.5516
1219.2816,472,1.5226
1219.2859,468,1.5097
1219.2902,460,1.4839
1219.2945,453,1.4613
1219.2988,448,1.4452
1219.3031,442,1.4258
1219.3074,446,1.4387
1219.3117,449,1.4484
1219.3159,451,1.4548
1219.3202,454,1.4645
1219.3245,457,1.4742
1219.3288,457,1.4742
1219.3331,458,1.4774
1219.3374,459,1.4806
1219.3417,467,1.5065
1219.346,480,1.5484
1219.3502,479,1.5452
1219.3546,482,1.5548
1219.3588,487,1.571
1219.3631,491,1.5839
1219.3674,500,1.6129
1219.3717,506,1.6323
1219.376,503,1.6226
1219.3802,502,1.6194
1219.3845,501,1.6161
1219.3888,501,1.6161
1219.3931,499,1.6097
1219.3974,498,1.6065
1219.4017,494,1.5935
1219.406,495,1.5968
1219.4102,499,1.6097
1219.4146,491,1.5839
1219.4188,482,1.5548
1219.4232,480,1.5484
1219.4275,480,1.5484
1219.4318,472,1.5226
1219.4361,474,1.529
1219.4404,482,1.5548
1219.4447,489,1.5774
1219.449,484,1.5613
1219.4533,472,1.5226
1219.4576,467,1.5065
1219.462,469,1.5129
1219.4663,478,1.5419
1219.4706,483,1.5581
1219.4749,482,1.5548
1219.4792,487,1.571
1219.4834,493,1.5903
1219.4878,488,1.5742
1219.4921,485,1.5645
1219.4964,486,1.5677
1219.5007,483,1.5581
1219.505,481,1.5516
1219.5093,478,1.5419
1219.5136,476,1.5355
1219.5179,483,1.5581
1219.5222,490,1.5806
1219.5265,497,1.6032
1219.5308,508,1.6387
1219.5351,512,1.6516
1219.5394,512,1.6516
1219.5437,508,1.6387
1219.548,505,1.629
1219.5523,496,1.6
1219.5566,486,1.5677
1219.5608,483,1.5581
1219.5652,488,1.5742
1219.5694,486,1.5677
1219.5737,480,1.5484
1219.5786,471,1.5194
1219.583,471,1.5194
1219.5873,476,1.5355
1219.5916,479,1.5452
1219.5959,475,1.5323
1219.6002,466,1.5032
1219.6045,461,1.4871
1219.6088,461,1.4871
1219.6131,461,1.4871
1219.6174,466,1.5032
1219.6217,471,1.5194
1219.626,472,1.5226
1219.6303,472,1.5226
1219.6346,468,1.5097
1219.6389,470,1.5161
1219.6432,473,1.5258
1219.6475,473,1.5258
1219.6519,477,1.5387
1219.6563,471,1.5194
1219.6606,471,1.5194
1219.6649,487,1.571
1219.6692,518,1.671
1219.6735,552,1.7806
1219.6778,614,1.9806
1219.6821,683,2.2032
1219.6864,710,2.2903
1219.6907,635,2.0484
1219.6949,531,1.7129
1219.6992,481,1.5516
1219.7035,497,1.6032
1219.7078,506,1.6323
1219.7121,481,1.5516
1219.7164,451,1.4548
1219.7208,443,1.429
1219.7251,474,1.529
1219.7294,522,1.6839
1219.7338,556,1.7935
1219.7381,570,1.8387
1219.7425,565,1.8226
1219.7468,560,1.8065
1219.7511,556,1.7935
1219.7555,548,1.7677
1219.7598,542,1.7484
1219.7641,544,1.7548
1219.7684,551,1.7774
1219.7727,557,1.7968
1219.777,562,1.8129
1219.7813,569,1.8355
1219.7856,572,1.8452
1219.7899,570,1.8387
1219.7942,573,1.8484
1219.7985,573,1.8484
1219.8028,572,1.8452
1219.8071,571,1.8419
1219.8114,573,1.8484
1219.8157,573,1.8484
1219.82,570,1.8387
1219.8243,569,1.8355
1219.8286,557,1.7968
1219.8329,541,1.7452
1219.8372,529,1.7065
1219.8415,532,1.7161
1219.8458,530,1.7097
1219.8501,539,1.7387
1219.8545,545,1.7581
1219.8588,550,1.7742
1219.8631,555,1.7903
1219.8675,561,1.8097
1219.8718,572,1.8452
1219.8761,579,1.8677
1219.8805,584,1.8839
1219.8848,581,1.8742
1219.8891,586,1.8903
1219.8935,591,1.9065
1219.8978,596,1.9226
1219.9021,593,1.9129
1219.9065,593,1.9129
1219.9108,596,1.9226
1219.9151,589,1.9
1219.9195,576,1.8581
1219.9238,560,1.8065
1219.9281,545,1.7581
1219.9325,530,1.7097
1219.9368,517,1.6677
1219.9412,506,1.6323
1219.9455,489,1.5774
1219.95,481,1.5516
1219.9544,469,1.5129
1219.9588,452,1.4581
1219.9631,444,1.4323
1219.9675,442,1.4258
1219.9718,442,1.4258
1219.976,449,1.4484
1219.9804,459,1.4806
1219.9847,458,1.4774
1219.9889,460,1.4839
1219.9932,458,1.4774
1219.9975,453,1.4613
1220.0018,458,1.4774
1220.0061,467,1.5065
1220.0104,472,1.5226
1220.0147,470,1.5161
1220.019,474,1.529
1220.0233,473,1.5258
1220.0276,471,1.5194
1220.0319,478,1.5419
1220.0362,484,1.5613
1220.0405,485,1.5645
1220.0448,486,1.5677
1220.0491,482,1.5548
1220.0534,475,1.5323
1220.0577,469,1.5129
1220.062,471,1.5194
1220.0664,475,1.5323
1220.0707,466,1.5032
1220.075,457,1.4742
1220.0794,456,1.471
1220.0837,457,1.4742
1220.088,466,1.5032
1220.0924,474,1.529
1220.0967,486,1.5677
1220.101,498,1.6065
1220.1054,499,1.6097
1220.1097,492,1.5871
1220.114,484,1.5613
1220.1184,483,1.5581
1220.1227,485,1.5645
1220.1271,471,1.5194
1220.1314,464,1.4968
1220.1358,471,1.5194
1220.1401,480,1.5484
1220.1444,477,1.5387
1220.1488,476,1.5355
1220.1531,481,1.5516
1220.1575,486,1.5677
1220.1619,488,1.5742
1220.1662,486,1.5677
1220.1705,490,1.5806
1220.1748,497,1.6032
1220.1791,497,1.6032
1220.1834,496,1.6
1220.1877,497,1.6032
1220.1919,499,1.6097
1220.1962,497,1.6032
1220.2005,504,1.6258
1220.2048,509,1.6419
1220.2091,514,1.6581
1220.2134,510,1.6452
1220.2177,497,1.6032
1220.222,493,1.5903
1220.2263,487,1.571
1220.2306,496,1.6
1220.2349,511,1.6484
1220.2392,516,1.6645
1220.2435,522,1.6839
1220.2478,525,1.6935
1220.2521,522,1.6839
1220.2564,515,1.6613
1220.2607,510,1.6452
1220.265,513,1.6548
1220.2694,522,1.6839
1220.2737,534,1.7226
1220.278,543,1.7516
1220.2824,544,1.7548
1220.2867,543,1.7516
1220.291,540,1.7419
1220.2954,546,1.7613
1220.2997,548,1.7677
1220.304,543,1.7516
1220.3084,544,1.7548
1220.3127,546,1.7613
1220.3171,535,1.7258
1220.3214,526,1.6968
1220.3258,519,1.6742
1220.3301,510,1.6452
1220.3346,509,1.6419
1220.3389,512,1.6516
1220.3432,514,1.6581
1220.3476,503,1.6226
1220.3519,494,1.5935
1220.3562,488,1.5742
1220.3606,490,1.5806
1220.3649,489,1.5774
1220.3692,483,1.5581
1220.3735,469,1.5129
1220.3778,458,1.4774
1220.3821,448,1.4452
1220.3864,451,1.4548
1220.3907,450,1.4516
1220.395,441,1.4226
1220.3993,437,1.4097
1220.4035,444,1.4323
1220.4078,446,1.4387
1220.4121,447,1.4419
1220.4165,448,1.4452
1220.4207,452,1.4581
1220.425,463,1.4935
1220.4293,487,1.571
1220.4336,516,1.6645
1220.4379,555,1.7903
1220.4422,614,1.9806
1220.4465,677,2.1839
1220.4508,654,2.1097
1220.4551,545,1.7581
1220.4595,450,1.4516
1220.4638,426,1.3742
1220.4682,434,1.4
1220.4725,435,1.4032
1220.4768,413,1.3323
1220.4812,398,1.2839
1220.4855,431,1.3903
1220.4898,478,1.5419
1220.4942,516,1.6645
1220.4985,540,1.7419
1220.5029,546,1.7613
1220.5072,543,1.7516
1220.5116,543,1.7516
1220.5159,548,1.7677
1220.5202,558,1.8
1220.5246,563,1.8161
1220.5289,558,1.8
1220.5333,549,1.771
1220.5376,549,1.771
1220.5419,538,1.7355
1220.5463,539,1.7387
1220.5507,543,1.7516
1220.5552,551,1.7774
1220.5598,555,1.7903
1220.5641,546,1.7613
1220.5685,536,1.729
1220.5728,519,1.6742
1220.5771,515,1.6613
1220.5814,519,1.6742
1220.5857,536,1.729
1220.59,551,1.7774
1220.5943,532,1.7161
1220.5986,517,1.6677
1220.6029,515,1.6613
1220.6072,522,1.6839
1220.6115,542,1.7484
1220.6158,559,1.8032
1220.6201,564,1.8194
1220.6244,569,1.8355
1220.6287,569,1.8355
1220.633,573,1.8484
1220.6373,586,1.8903
1220.6416,602,1.9419
1220.6459,610,1.9677
1220.6502,610,1.9677
1220.6545,607,1.9581
1220.6588,604,1.9484
1220.6631,601,1.9387
1220.6674,597,1.9258
1220.6717,598,1.929
1220.6761,594,1.9161
1220.6804,595,1.9194
1220.6847,594,1.9161
1220.689,598,1.929
1220.6934,588,1.8968
1220.6977,562,1.8129
1220.702,546,1.7613
1220.7064,527,1.7
1220.7107,501,1.6161
1220.715,486,1.5677
1220.7194,472,1.5226
1220.7237,463,1.4935
1220.7281,458,1.4774
1220.7324,456,1.471
1220.7367,459,1.4806
1220.7411,452,1.4581
1220.7454,443,1.429
1220.7497,439,1.4161
1220.7541,443,1.429
1220.7584,443,1.429
1220.7629,427,1.3774
1220.7672,410,1.3226
1220.7715,399,1.2871
1220.7757,391,1.2613
1220.78,392,1.2645
1220.7842,390,1.2581
1220.7885,388,1.2516
1220.7927,389,1.2548
1220.797,394,1.271
1220.8012,397,1.2806
1220.8055,404,1.3032
1220.8097,422,1.3613
1220.814,445,1.4355
1220.8182,455,1.4677
1220.8225,467,1.5065
1220.8267,475,1.5323
1220.831,474,1.529
1220.8352,465,1.5
1220.8394,461,1.4871
1220.8437,452,1.4581
1220.848,455,1.4677
1220.8524,461,1.4871
1220.8567,460,1.4839
1220.8611,466,1.5032
1220.8654,468,1.5097
1220.8697,468,1.5097
1220.874,469,1.5129
1220.8782,468,1.5097
1220.8825,462,1.4903
1220.8867,467,1.5065
1220.891,471,1.5194
1220.8952,469,1.5129
1220.8994,460,1.4839
1220.9037,452,1.4581
1220.9079,450,1.4516
1220.9122,455,1.4677
1220.9165,455,1.4677
1220.9207,453,1.4613
1220.925,450,1.4516
1220.9292,455,1.4677
1220.9335,463,1.4935
1220.9377,459,1.4806
1220.942,460,1.4839
1220.9462,464,1.4968
1220.9505,462,1.4903
1220.9547,455,1.4677
1220.9589,441,1.4226
1220.9632,433,1.3968
1220.9675,436,1.4065
1220.9718,438,1.4129
1220.9761,440,1.4194
1220.9803,443,1.429
1220.9846,449,1.4484
1220.9889,449,1.4484
1220.9932,451,1.4548
1220.9974,455,1.4677
1221.0018,459,1.4806
1221.0073,467,1.5065
1221.0118,464,1.4968
1221.0162,462,1.4903
1221.0207,469,1.5129
1221.0252,476,1.5355
1221.0298,477,1.5387
1221.0344,487,1.571
1221.0387,493,1.5903
1221.0431,503,1.6226
1221.0474,510,1.6452
1221.0518,514,1.6581
1221.0561,517,1.6677
1221.0604,521,1.6806
1221.0648,537,1.7323
1221.0691,546,1.7613
1221.0734,545,1.7581
1221.0776,533,1.7194
1221.0819,534,1.7226
1221.0862,543,1.7516
1221.0904,542,1.7484
1221.0947,537,1.7323
1221.099,537,1.7323
1221.1032,530,1.7097
1221.1075,524,1.6903
1221.1118,526,1.6968
1221.1161,520,1.6774
1221.1203,513,1.6548
1221.1246,504,1.6258
1221.1289,505,1.629
1221.1331,508,1.6387
1221.1374,506,1.6323
1221.1417,504,1.6258
1221.1459,498,1.6065
1221.1502,489,1.5774
1221.1545,488,1.5742
1221.1587,483,1.5581
1221.163,476,1.5355
1221.1674,473,1.5258
1221.1717,468,1.5097
1221.176,466,1.5032
1221.1803,467,1.5065
1221.1847,471,1.5194
1221.1897,469,1.5129
1221.1941,467,1.5065
1221.1984,466,1.5032
1221.2027,464,1.4968
1221.2071,472,1.5226
1221.2115,473,1.5258
1221.2158,485,1.5645
1221.2201,513,1.6548
1221.2245,555,1.7903
1221.2288,619,1.9968
1221.2332,689,2.2226
1221.2375,697,2.2484
1221.2418,608,1.9613
1221.2462,508,1.6387
1221.2505,460,1.4839
1221.2549,456,1.471
1221.2592,448,1.4452
1221.2635,424,1.3677
1221.2678,422,1.3613
1221.2722,439,1.4161
1221.2765,461,1.4871
1221.2808,486,1.5677
1221.2851,502,1.6194
1221.2894,506,1.6323
1221.2937,513,1.6548
1221.298,516,1.6645
1221.3023,517,1.6677
1221.3066,514,1.6581
1221.3109,520,1.6774
1221.3152,528,1.7032
1221.3195,521,1.6806
1221.3238,505,1.629
1221.328,495,1.5968
1221.3324,494,1.5935
1221.3367,489,1.5774
1221.341,488,1.5742
1221.3453,494,1.5935
1221.3495,498,1.6065
1221.3539,503,1.6226
1221.3581,504,1.6258
1221.3624,502,1.6194
1221.3667,514,1.6581
1221.371,524,1.6903
1221.3754,534,1.7226
1221.3797,539,1.7387
1221.3841,548,1.7677
1221.3884,552,1.7806
1221.3927,554,1.7871
1221.3971,574,1.8516
1221.4015,585,1.8871
1221.4058,596,1.9226
1221.4101,603,1.9452
1221.4144,599,1.9323
1221.4187,592,1.9097
1221.423,595,1.9194
1221.4273,600,1.9355
1221.4316,601,1.9387
1221.4359,597,1.9258
1221.4403,597,1.9258
1221.4446,593,1.9129
1221.4489,600,1.9355
1221.4534,598,1.929
1221.4578,599,1.9323
1221.4621,594,1.9161
1221.4664,588,1.8968
1221.4714,581,1.8742
1221.4758,569,1.8355
1221.4801,557,1.7968
1221.4843,552,1.7806
1221.4886,544,1.7548
1221.4929,527,1.7
1221.4971,511,1.6484
1221.5014,500,1.6129
1221.5057,493,1.5903
1221.51,480,1.5484
1221.5142,460,1.4839
1221.5185,453,1.4613
1221.5228,449,1.4484
1221.527,437,1.4097
1221.5313,436,1.4065
1221.5356,436,1.4065
1221.5399,433,1.3968
1221.5441,434,1.4
1221.5484,429,1.3839
1221.5526,433,1.3968
1221.5569,439,1.4161
1221.5611,440,1.4194
1221.5654,438,1.4129
1221.5697,442,1.4258
1221.5739,445,1.4355
1221.5782,445,1.4355
1221.5824,443,1.429
1221.5867,441,1.4226
1221.591,445,1.4355
1221.5952,444,1.4323
1221.5995,440,1.4194
1221.6038,437,1.4097
1221.608,443,1.429
1221.6123,444,1.4323
1221.6165,444,1.4323
1221.6208,450,1.4516
1221.6251,453,1.4613
1221.6293,470,1.5161
1221.6336,486,1.5677
1221.6379,499,1.6097
1221.6422,511,1.6484
1221.6465,514,1.6581
1221.6508,511,1.6484
1221.6551,508,1.6387
1221.6594,511,1.6484
1221.6637,507,1.6355
1221.668,507,1.6355
1221.6724,505,1.629
1221.6767,508,1.6387
1221.681,506,1.6323
1221.6854,494,1.5935
1221.6897,487,1.571
1221.694,486,1.5677
1221.6984,484,1.5613
1221.7027,485,1.5645
1221.7071,489,1.5774
1221.7114,485,1.5645
1221.7158,478,1.5419
1221.7201,475,1.5323
1221.7244,475,1.5323
1221.7288,479,1.5452
1221.7331,480,1.5484
1221.7375,483,1.5581
1221.7418,479,1.5452
1221.7462,476,1.5355
1221.7506,480,1.5484
1221.755,479,1.5452
1221.7595,486,1.5677
1221.7638,498,1.6065
1221.7682,505,1.629
1221.7726,499,1.6097
1221.777,494,1.5935
1221.7813,499,1.6097
1221.7856,503,1.6226
1221.7899,507,1.6355
1221.7942,497,1.6032
1221.7985,498,1.6065
1221.8028,515,1.6613
1221.8071,528,1.7032
1221.8114,538,1.7355
1221.8157,545,1.7581
1221.82,544,1.7548
1221.8243,547,1.7645
1221.8286,553,1.7839
1221.8329,560,1.8065
1221.8372,563,1.8161
1221.8415,562,1.8129
1221.8458,563,1.8161
1221.8501,563,1.8161
1221.8544,562,1.8129
1221.8587,567,1.829
1221.863,580,1.871
1221.8673,591,1.9065
1221.8716,592,1.9097
1221.8759,587,1.8935
1221.8802,583,1.8806
1221.8846,553,1.7839
1221.8889,497,1.6032
1221.8932,439,1.4161
1221.8976,397,1.2806
1221.9019,362,1.1677
1221.9062,332,1.071
1221.9106,345,1.1129
1221.9149,380,1.2258
1221.9192,428,1.3806
1221.9235,443,1.429
1221.9279,408,1.3161
1221.9323,372,1.2
1221.9366,348,1.1226
1221.941,344,1.1097
1221.9453,377,1.2161
1221.9496,415,1.3387
1221.954,428,1.3806
1221.9583,431,1.3903
1221.9626,427,1.3774
1221.967,417,1.3452
1221.9714,423,1.3645
1221.9757,424,1.3677
1221.98,419,1.3516
1221.9843,406,1.3097
1221.9886,386,1.2452
1221.9929,368,1.1871
1221.9972,362,1.1677
1222.0015,372,1.2
1222.0058,410,1.3226
1222.0102,468,1.5097
1222.0145,536,1.729
1222.0188,607,1.9581
1222.0231,594,1.9161
1222.0273,598,1.929
1222.0317,639,2.0613
1222.036,669,2.1581
1222.0403,592,1.9097
1222.0445,483,1.5581
1222.0488,399,1.2871
1222.0532,374,1.2065
1222.0575,368,1.1871
1222.0617,350,1.129
1222.066,333,1.0742
1222.0703,338,1.0903
1222.0747,370,1.1935
1222.079,420,1.3548
1222.0834,464,1.4968
1222.0877,477,1.5387
1222.0921,465,1.5
1222.0964,452,1.4581
1222.1007,442,1.4258
1222.1051,443,1.429
1222.1094,456,1.471
1222.1137,462,1.4903
1222.1181,465,1.5
1222.1224,468,1.5097
1222.1267,473,1.5258
1222.131,480,1.5484
1222.1354,486,1.5677
1222.1397,490,1.5806
1222.1441,506,1.6323
1222.1484,512,1.6516
1222.1527,510,1.6452
1222.1571,511,1.6484
1222.1614,509,1.6419
1222.1658,508,1.6387
1222.1701,513,1.6548
1222.1744,517,1.6677
1222.1788,511,1.6484
1222.1831,518,1.671
1222.1874,527,1.7
1222.1917,530,1.7097
1222.196,529,1.7065
1222.2003,522,1.6839
1222.2046,510,1.6452
1222.2089,507,1.6355
1222.2132,510,1.6452
1222.2175,515,1.6613
1222.2217,515,1.6613
1222.226,510,1.6452
1222.2303,506,1.6323
1222.2346,512,1.6516
1222.2389,523,1.6871
1222.2432,531,1.7129
1222.2475,540,1.7419
1222.2518,549,1.771
1222.2561,562,1.8129
1222.2604,581,1.8742
1222.2647,592,1.9097
1222.269,579,1.8677
1222.2733,577,1.8613
1222.2777,582,1.8774
1222.282,611,1.971
1222.2864,634,2.0452
1222.2907,631,2.0355
1222.295,627,2.0226
1222.2994,610,1.9677
1222.3037,569,1.8355
1222.308,526,1.6968
1222.3124,504,1.6258
1222.3167,486,1.5677
1222.321,470,1.5161
1222.3254,457,1.4742
1222.3297,461,1.4871
1222.3341,453,1.4613
1222.3384,444,1.4323
1222.3427,429,1.3839
1222.3471,426,1.3742
1222.3515,432,1.3935
1222.3559,438,1.4129
1222.3603,441,1.4226
1222.3646,453,1.4613
1222.3689,461,1.4871
1222.3732,473,1.5258
1222.3775,478,1.5419
1222.3818,499,1.6097
1222.386,529,1.7065
1222.3903,530,1.7097
1222.3945,509,1.6419
1222.3988,463,1.4935
1222.403,427,1.3774
1222.4073,409,1.3194
1222.4116,399,1.2871
1222.4158,398,1.2839
1222.42,409,1.3194
1222.4243,414,1.3355
1222.4286,413,1.3323
1222.4329,407,1.3129
1222.4371,409,1.3194
1222.4414,414,1.3355
1222.4457,425,1.371
1222.4499,442,1.4258
1222.4542,447,1.4419
1222.4585,443,1.429
1222.4627,436,1.4065
1222.4671,434,1.4
1222.4713,434,1.4
1222.4756,435,1.4032
1222.4799,432,1.3935
1222.4842,433,1.3968
1222.4885,430,1.3871
1222.4928,433,1.3968
1222.4972,434,1.4
1222.5015,438,1.4129
1222.5058,442,1.4258
1222.5101,439,1.4161
1222.5144,437,1.4097
1222.5187,432,1.3935
1222.523,435,1.4032
1222.5273,438,1.4129
1222.5316,435,1.4032
1222.5359,433,1.3968
1222.5402,430,1.3871
1222.5445,429,1.3839
1222.5488,429,1.3839
1222.5531,433,1.3968
1222.5574,441,1.4226
1222.5617,447,1.4419
1222.566,451,1.4548
1222.5702,450,1.4516
1222.5745,456,1.471
1222.5788,459,1.4806
1222.5831,448,1.4452
1222.5874,442,1.4258
1222.5917,445,1.4355
1222.596,446,1.4387
1222.6003,450,1.4516
1222.6046,464,1.4968
1222.6089,475,1.5323
1222.6132,476,1.5355
1222.6175,477,1.5387
1222.6218,489,1.5774
1222.6261,503,1.6226
1222.6304,514,1.6581
1222.6347,510,1.6452
1222.639,509,1.6419
1222.6433,505,1.629
1222.6476,493,1.5903
1222.652,490,1.5806
1222.6563,482,1.5548
1222.6607,471,1.5194
1222.665,469,1.5129
1222.6693,473,1.5258
1222.6736,474,1.529
1222.6779,470,1.5161
1222.6821,468,1.5097
1222.6864,460,1.4839
1222.6907,453,1.4613
1222.695,445,1.4355
1222.6994,442,1.4258
1222.7036,443,1.429
1222.708,443,1.429
1222.7123,447,1.4419
1222.7166,453,1.4613
1222.7209,459,1.4806
1222.7252,464,1.4968
1222.7295,476,1.5355
1222.7338,482,1.5548
1222.7381,485,1.5645
1222.7424,491,1.5839
1222.7467,499,1.6097
1222.751,499,1.6097
1222.7553,507,1.6355
1222.7596,530,1.7097
1222.7638,564,1.8194
1222.7681,614,1.9806
1222.7724,678,2.1871
1222.7767,722,2.329
1222.781,670,2.1613
1222.7853,564,1.8194
1222.7896,486,1.5677
1222.7939,463,1.4935
1222.8043,419,1.3516
1222.8087,400,1.2903
1222.8131,408,1.3161
1222.8173,447,1.4419
1222.8216,488,1.5742
1222.8259,518,1.671
1222.8302,530,1.7097
1222.8345,534,1.7226
1222.8388,535,1.7258
1222.8431,536,1.729
1222.8474,532,1.7161
1222.8517,540,1.7419
1222.856,545,1.7581
1222.8603,546,1.7613
1222.8646,563,1.8161
1222.8688,575,1.8548
1222.8731,579,1.8677
1222.8774,580,1.871
1222.8817,577,1.8613
1222.886,575,1.8548
1222.8903,586,1.8903
1222.8946,598,1.929
1222.8989,596,1.9226
1222.9032,591,1.9065
1222.9075,591,1.9065
1222.9118,586,1.8903
1222.9162,588,1.8968
1222.9205,597,1.9258
1222.9248,601,1.9387
1222.9291,600,1.9355
1222.9334,599,1.9323
1222.9377,595,1.9194
1222.942,589,1.9
1222.9463,594,1.9161
1222.9506,608,1.9613
1222.9549,618,1.9935
1222.9593,625,2.0161
1222.9636,626,2.0194
1222.9678,624,2.0129
1222.9721,620,2
1222.9765,618,1.9935
1222.9808,619,1.9968
1222.9851,619,1.9968
1222.9894,623,2.0097
1222.9937,626,2.0194
1222.9981,628,2.0258
1223.0026,631,2.0355
1223.007,626,2.0194
1223.0113,614,1.9806
1223.0156,601,1.9387
1223.0199,589,1.9
1223.0242,583,1.8806
1223.0285,583,1.8806
1223.0329,595,1.9194
1223.0372,588,1.8968
1223.0415,580,1.871
1223.0458,578,1.8645
1223.0501,571,1.8419
1223.0544,567,1.829
1223.0587,564,1.8194
1223.063,557,1.7968
1223.0673,541,1.7452
1223.0716,525,1.6935
1223.0759,514,1.6581
1223.0802,505,1.629
1223.0845,508,1.6387
1223.0888,514,1.6581
1223.0931,504,1.6258
1223.0974,495,1.5968
1223.1017,490,1.5806
1223.106,486,1.5677
1223.1102,496,1.6
1223.1145,517,1.6677
1223.1188,528,1.7032
1223.1231,543,1.7516
1223.1273,550,1.7742
1223.1316,551,1.7774
1223.1358,545,1.7581
1223.1401,540,1.7419
1223.1444,536,1.729
1223.1486,526,1.6968
1223.1529,515,1.6613
1223.1572,517,1.6677
1223.1614,531,1.7129
1223.1657,536,1.729
1223.1699,534,1.7226
1223.1742,541,1.7452
1223.1784,560,1.8065
1223.1827,568,1.8323
1223.187,577,1.8613
1223.1912,583,1.8806
1223.1955,588,1.8968
1223.1998,588,1.8968
1223.2041,590,1.9032
1223.2084,592,1.9097
1223.2127,586,1.8903
1223.217,579,1.8677
1223.2212,572,1.8452
1223.2256,559,1.8032
1223.2298,559,1.8032
1223.2341,569,1.8355
1223.2384,573,1.8484
1223.2427,568,1.8323
1223.247,564,1.8194
1223.2514,560,1.8065
1223.2558,542,1.7484
1223.2602,518,1.671
1223.2646,502,1.6194
1223.269,495,1.5968
1223.2733,488,1.5742
1223.2775,481,1.5516
1223.2818,478,1.5419
1223.2861,482,1.5548
1223.2904,497,1.6032
1223.2947,517,1.6677
1223.2989,529,1.7065
1223.3032,540,1.7419
1223.3074,547,1.7645
1223.3117,539,1.7387
1223.3159,527,1.7
1223.3202,515,1.6613
1223.3244,500,1.6129
1223.3287,486,1.5677
1223.3329,477,1.5387
1223.3372,473,1.5258
1223.3414,472,1.5226
1223.3457,476,1.5355
1223.3499,491,1.5839
1223.3542,498,1.6065
1223.3584,491,1.5839
1223.3627,496,1.6
1223.3669,504,1.6258
1223.3712,507,1.6355
1223.3754,514,1.6581
1223.3797,530,1.7097
1223.3839,542,1.7484
1223.3883,539,1.7387
1223.3925,522,1.6839
1223.3969,501,1.6161
1223.4011,489,1.5774
1223.4054,486,1.5677
1223.4097,482,1.5548
1223.414,477,1.5387
1223.4182,468,1.5097
1223.4225,458,1.4774
1223.4268,458,1.4774
1223.4311,465,1.5
1223.4353,466,1.5032
1223.4396,474,1.529
1223.4439,491,1.5839
1223.4482,496,1.6
1223.4525,491,1.5839
1223.4568,487,1.571
1223.4611,491,1.5839
1223.4653,492,1.5871
1223.4696,490,1.5806
1223.4739,482,1.5548
1223.4782,471,1.5194
1223.4824,484,1.5613
1223.4867,504,1.6258
1223.491,522,1.6839
1223.4953,522,1.6839
1223.4996,514,1.6581
1223.5039,509,1.6419
1223.5081,510,1.6452
1223.5124,507,1.6355
1223.5167,518,1.671
1223.5209,529,1.7065
1223.5252,534,1.7226
1223.5295,531,1.7129
1223.5338,525,1.6935
1223.5381,513,1.6548
1223.5423,497,1.6032
1223.5467,473,1.5258
1223.5511,452,1.4581
1223.5556,431,1.3903
1223.5599,423,1.3645
1223.5642,422,1.3613
1223.5685,407,1.3129
1223.5728,392,1.2645
1223.5771,393,1.2677
1223.5814,408,1.3161
1223.5857,446,1.4387
1223.5901,517,1.6677
1223.5944,587,1.8935
1223.5986,571,1.8419
1223.6029,475,1.5323
1223.6071,376,1.2129
1223.6114,333,1.0742
1223.6156,337,1.0871
1223.6199,332,1.071
1223.6242,319,1.029
1223.6284,319,1.029
1223.6327,350,1.129
1223.637,398,1.2839
1223.6412,435,1.4032
1223.6455,454,1.4645
1223.6497,459,1.4806
1223.654,460,1.4839
1223.6583,460,1.4839
1223.6626,463,1.4935
1223.6668,472,1.5226
1223.6711,474,1.529
1223.6753,472,1.5226
1223.6796,465,1.5
1223.6839,461,1.4871
1223.6881,462,1.4903
1223.6924,465,1.5
1223.6967,467,1.5065
1223.701,460,1.4839
1223.7053,444,1.4323
1223.7096,439,1.4161
1223.7139,441,1.4226
1223.7182,452,1.4581
1223.7225,461,1.4871
1223.7268,469,1.5129
1223.7311,475,1.5323
1223.7354,491,1.5839
1223.7397,506,1.6323
1223.744,508,1.6387
1223.7483,503,1.6226
1223.7526,502,1.6194
1223.7569,507,1.6355
1223.7612,518,1.671
1223.7655,530,1.7097
1223.7698,535,1.7258
1223.7741,537,1.7323
1223.7784,539,1.7387
1223.7827,548,1.7677
1223.787,561,1.8097
1223.7913,568,1.8323
1223.7956,572,1.8452
1223.7999,580,1.871
1223.8042,578,1.8645
1223.8085,580,1.871
1223.8128,579,1.8677
1223.8171,577,1.8613
1223.8214,570,1.8387
1223.8257,560,1.8065
1223.83,551,1.7774
1223.8343,549,1.771
1223.8386,550,1.7742
1223.843,541,1.7452
1223.8473,530,1.7097
1223.8516,515,1.6613
1223.8558,493,1.5903
1223.8602,483,1.5581
1223.8645,473,1.5258
1223.8687,463,1.4935
1223.873,450,1.4516
1223.8773,443,1.429
1223.8816,441,1.4226
1223.886,440,1.4194
1223.8902,436,1.4065
1223.8945,431,1.3903
1223.8988,425,1.371
1223.9031,431,1.3903
1223.9074,428,1.3806
1223.9117,418,1.3484
1223.916,415,1.3387
1223.9203,415,1.3387
1223.9246,418,1.3484
1223.9289,420,1.3548
1223.9332,425,1.371
1223.9375,428,1.3806
1223.9418,436,1.4065
1223.9461,454,1.4645
1223.9504,460,1.4839
1223.9547,462,1.4903
1223.9589,468,1.5097
1223.9633,485,1.5645
1223.9676,493,1.5903
1223.9718,497,1.6032
1223.9761,499,1.6097
1223.9804,500,1.6129
1223.9847,500,1.6129
1223.989,498,1.6065
1223.9933,501,1.6161
1223.9976,501,1.6161
1224.0019,501,1.6161
1224.0062,509,1.6419
1224.0104,516,1.6645
1224.0147,524,1.6903
1224.019,528,1.7032
1224.0232,527,1.7
1224.0275,528,1.7032
1224.0318,531,1.7129
1224.0361,534,1.7226
1224.0403,534,1.7226
1224.0446,529,1.7065
1224.0489,530,1.7097
1224.0532,526,1.6968
1224.0575,519,1.6742
1224.0618,513,1.6548
1224.066,512,1.6516
1224.0703,514,1.6581
1224.0746,510,1.6452
1224.0789,519,1.6742
1224.0831,521,1.6806
1224.0874,521,1.6806
1224.0917,516,1.6645
1224.0959,511,1.6484
1224.1002,507,1.6355
1224.1045,498,1.6065
1224.1088,499,1.6097
1224.1131,499,1.6097
1224.1174,504,1.6258
1224.1216,505,1.629
1224.1259,510,1.6452
1224.1302,512,1.6516
1224.1345,509,1.6419
1224.1388,510,1.6452
1224.143,518,1.671
1224.1473,539,1.7387
1224.1518,558,1.8
1224.1562,557,1.7968
1224.1606,542,1.7484
1224.1649,531,1.7129
1224.1692,525,1.6935
1224.1735,521,1.6806
1224.1778,526,1.6968
1224.1821,536,1.729
1224.1864,541,1.7452
1224.1908,542,1.7484
1224.1951,545,1.7581
1224.1993,548,1.7677
1224.2036,537,1.7323
1224.2078,522,1.6839
1224.2121,515,1.6613
1224.2163,523,1.6871
1224.2206,532,1.7161
1224.2248,534,1.7226
1224.2291,536,1.729
1224.2333,547,1.7645
1224.2376,561,1.8097
1224.2418,581,1.8742
1224.2461,587,1.8935
1224.2503,577,1.8613
1224.2546,573,1.8484
1224.2588,567,1.829
1224.2631,552,1.7806
1224.2673,544,1.7548
1224.2716,544,1.7548
1224.2759,539,1.7387
1224.2802,530,1.7097
1224.2845,529,1.7065
1224.2888,533,1.7194
1224.2931,534,1.7226
1224.2974,532,1.7161
1224.3017,527,1.7
1224.306,518,1.671
1224.3103,513,1.6548
1224.3147,516,1.6645
1224.319,521,1.6806
1224.3233,540,1.7419
1224.3277,549,1.771
1224.332,548,1.7677
1224.3363,541,1.7452
1224.3407,532,1.7161
1224.345,535,1.7258
1224.3493,534,1.7226
1224.3537,525,1.6935
1224.358,523,1.6871
1224.3624,530,1.7097
1224.3667,525,1.6935
1224.371,517,1.6677
1224.3753,530,1.7097
1224.3797,561,1.8097
1224.384,612,1.9742
1224.3883,673,2.171
1224.3926,717,2.3129
1224.3971,675,2.1774
1224.4015,583,1.8806
1224.4061,495,1.5968
1224.4105,461,1.4871
1224.4148,448,1.4452
1224.4191,418,1.3484
1224.4234,391,1.2613
1224.4277,402,1.2968
1224.432,439,1.4161
1224.4363,481,1.5516
1224.4405,510,1.6452
1224.4448,520,1.6774
1224.4491,516,1.6645
1224.4553,502,1.6194
1224.4597,501,1.6161
1224.464,503,1.6226
1224.4683,501,1.6161
1224.4726,490,1.5806
1224.477,501,1.6161
1224.4813,507,1.6355
1224.4856,512,1.6516
1224.4899,513,1.6548
1224.4942,511,1.6484
1224.4985,519,1.6742
1224.5028,533,1.7194
1224.5071,544,1.7548
1224.5114,533,1.7194
1224.5157,521,1.6806
1224.52,518,1.671
1224.5243,531,1.7129
1224.5286,533,1.7194
1224.5329,534,1.7226
1224.5372,543,1.7516
1224.5415,546,1.7613
1224.5458,548,1.7677
1224.5501,556,1.7935
1224.5544,555,1.7903
1224.5587,552,1.7806
1224.563,558,1.8
1224.5673,557,1.7968
1224.5716,552,1.7806
1224.5759,545,1.7581
1224.5802,549,1.771
1224.5845,558,1.8
1224.5888,571,1.8419
1224.593,581,1.8742
1224.5973,580,1.871
1224.6016,570,1.8387
1224.606,560,1.8065
1224.6103,548,1.7677
1224.6146,540,1.7419
1224.619,542,1.7484
1224.6233,548,1.7677
1224.6276,555,1.7903
1224.632,548,1.7677
1224.6363,544,1.7548
1224.6406,540,1.7419
1224.645,533,1.7194
1224.6493,524,1.6903
1224.6536,507,1.6355
1224.658,497,1.6032
1224.6623,490,1.5806
1224.6666,470,1.5161
1224.671,451,1.4548
1224.6753,439,1.4161
1224.6796,432,1.3935
1224.6839,429,1.3839
1224.6883,414,1.3355
1224.6926,398,1.2839
1224.697,384,1.2387
1224.7013,379,1.2226
1224.7057,379,1.2226
1224.71,385,1.2419
1224.7142,381,1.229
1224.7185,380,1.2258
1224.7229,387,1.2484
1224.7272,393,1.2677
1224.7315,395,1.2742
1224.7357,391,1.2613
1224.74,396,1.2774
1224.7444,401,1.2935
1224.7486,403,1.3
1224.7529,404,1.3032
1224.7572,400,1.2903
1224.7615,406,1.3097
1224.7658,415,1.3387
1224.7701,418,1.3484
1224.7744,426,1.3742
1224.7787,441,1.4226
1224.783,442,1.4258
1224.7873,437,1.4097
1224.7916,435,1.4032
1224.7959,449,1.4484
1224.8002,440,1.4194
1224.8045,435,1.4032
1224.8088,435,1.4032
1224.8132,435,1.4032
1224.8175,433,1.3968
1224.8218,429,1.3839
1224.8262,428,1.3806
1224.8305,433,1.3968
1224.8348,441,1.4226
1224.8391,436,1.4065
1224.8435,449,1.4484
1224.8478,456,1.471
1224.8521,454,1.4645
1224.8565,448,1.4452
1224.8608,444,1.4323
1224.8651,440,1.4194
1224.8695,449,1.4484
1224.8738,466,1.5032
1224.8781,478,1.5419
1224.8825,485,1.5645
1224.8868,485,1.5645
1224.8911,486,1.5677
1224.8955,495,1.5968
1224.8998,487,1.571
1224.9041,480,1.5484
1224.9084,471,1.5194
1224.9127,483,1.5581
1224.917,495,1.5968
1224.9213,495,1.5968
1224.9256,483,1.5581
1224.9299,472,1.5226
1224.9343,473,1.5258
1224.9385,471,1.5194
1224.9429,482,1.5548
1224.9471,482,1.5548
1224.9515,477,1.5387
1224.9557,488,1.5742
1224.96,491,1.5839
1224.9643,498,1.6065
1224.9686,502,1.6194
1224.9729,506,1.6323
1224.9772,511,1.6484
1224.9815,509,1.6419
1224.9858,511,1.6484
1224.9901,522,1.6839
1224.9944,514,1.6581
1224.9987,511,1.6484
1225.0031,511,1.6484
1225.0074,507,1.6355
1225.0118,505,1.629
1225.0161,499,1.6097
1225.0204,484,1.5613
1225.0247,476,1.5355
1225.0291,475,1.5323
1225.0334,466,1.5032
1225.0378,460,1.4839
1225.0421,459,1.4806
1225.0464,462,1.4903
1225.0508,465,1.5
1225.0561,467,1.5065
1225.0606,474,1.529
1225.0649,484,1.5613
1225.0693,489,1.5774
1225.0737,493,1.5903
1225.078,492,1.5871
1225.0823,491,1.5839
1225.0867,493,1.5903
1225.091,497,1.6032
1225.0953,496,1.6
1225.0997,484,1.5613
1225.1041,472,1.5226
1225.1084,476,1.5355
1225.1127,475,1.5323
1225.1171,472,1.5226
1225.1214,468,1.5097
1225.1256,463,1.4935
1225.1299,471,1.5194
1225.1341,472,1.5226
1225.1384,475,1.5323
1225.1427,476,1.5355
1225.1469,480,1.5484
1225.1512,484,1.5613
1225.1555,484,1.5613
1225.1597,481,1.5516
1225.164,484,1.5613
1225.1682,481,1.5516
1225.1725,478,1.5419
1225.1768,475,1.5323
1225.181,476,1.5355
1225.1853,477,1.5387
1225.1896,479,1.5452
1225.1938,479,1.5452
1225.1981,474,1.529
1225.2024,484,1.5613
1225.2066,510,1.6452
1225.2109,546,1.7613
1225.2152,595,1.9194
1225.2195,656,2.1161
1225.2238,719,2.3194
1225.2281,711,2.2935
1225.2324,606,1.9548
1225.2367,509,1.6419
1225.2409,478,1.5419
1225.2453,501,1.6161
1225.2496,502,1.6194
1225.2539,481,1.5516
1225.2582,474,1.529
1225.2624,489,1.5774
1225.2667,520,1.6774
1225.271,546,1.7613
1225.2753,555,1.7903
1225.2796,553,1.7839
1225.2839,549,1.771
1225.2882,546,1.7613
1225.2925,558,1.8
1225.2968,581,1.8742
1225.3011,588,1.8968
1225.3054,579,1.8677
1225.3097,571,1.8419
1225.314,567,1.829
1225.3183,561,1.8097
1225.3226,552,1.7806
1225.3269,524,1.6903
1225.3312,503,1.6226
1225.3355,486,1.5677
1225.3398,465,1.5
1225.3442,449,1.4484
1225.3485,449,1.4484
1225.353,450,1.4516
1225.3574,450,1.4516
1225.3619,456,1.471
1225.3662,457,1.4742
1225.3705,454,1.4645
1225.3749,455,1.4677
1225.3792,456,1.471
1225.3835,459,1.4806
1225.388,462,1.4903
1225.3924,467,1.5065
1225.3967,469,1.5129
1225.401,472,1.5226
1225.4055,480,1.5484
1225.4098,484,1.5613
1225.4141,492,1.5871
1225.4184,505,1.629
1225.4227,513,1.6548
1225.427,513,1.6548
1225.4313,507,1.6355
1225.4356,500,1.6129
1225.4399,496,1.6
1225.4442,499,1.6097
1225.4485,500,1.6129
1225.4528,501,1.6161
1225.4571,500,1.6129
1225.4614,501,1.6161
1225.4657,499,1.6097
1225.47,490,1.5806
1225.4743,485,1.5645
1225.4786,472,1.5226
1225.4829,459,1.4806
1225.4872,450,1.4516
1225.4915,444,1.4323
1225.4957,434,1.4
1225.5,423,1.3645
1225.5043,414,1.3355
1225.5086,405,1.3065
1225.5129,395,1.2742
1225.5173,384,1.2387
1225.5216,377,1.2161
1225.5259,386,1.2452
1225.5303,387,1.2484
1225.5346,378,1.2194
1225.5389,376,1.2129
1225.5433,377,1.2161
1225.5476,377,1.2161
1225.5519,380,1.2258
1225.5562,382,1.2323
1225.5606,387,1.2484
1225.5649,390,1.2581
1225.5693,393,1.2677
1225.5736,400,1.2903
1225.5779,402,1.2968
1225.5822,407,1.3129
1225.5866,412,1.329
1225.5909,407,1.3129
1225.5952,409,1.3194
1225.5996,415,1.3387
1225.6039,423,1.3645
1225.6083,425,1.371
1225.6127,428,1.3806
1225.617,432,1.3935
1225.6213,437,1.4097
1225.6256,439,1.4161
1225.6299,437,1.4097
1225.6342,438,1.4129
1225.6385,441,1.4226
1225.6428,440,1.4194
1225.6471,440,1.4194
1225.6514,450,1.4516
1225.6557,464,1.4968
1225.6599,469,1.5129
1225.6642,469,1.5129
1225.6685,470,1.5161
1225.6728,469,1.5129
1225.6771,470,1.5161
1225.6814,477,1.5387
1225.6857,481,1.5516
1225.69,474,1.529
1225.6943,471,1.5194
1225.6986,471,1.5194
1225.7029,476,1.5355
1225.7072,483,1.5581
1225.7115,486,1.5677
1225.7158,489,1.5774
1225.7201,495,1.5968
1225.7245,499,1.6097
1225.7288,499,1.6097
1225.7332,501,1.6161
1225.7375,500,1.6129
1225.7418,500,1.6129
1225.7462,502,1.6194
1225.7505,501,1.6161
1225.7548,494,1.5935
1225.7591,491,1.5839
1225.7635,485,1.5645
1225.7678,486,1.5677
1225.7721,486,1.5677
1225.7765,486,1.5677
1225.7808,491,1.5839
1225.7851,492,1.5871
1225.7894,489,1.5774
1225.7938,490,1.5806
1225.7981,494,1.5935
1225.8024,496,1.6
1225.8068,494,1.5935
1225.8111,496,1.6
1225.8154,498,1.6065
1225.8197,508,1.6387
1225.824,522,1.6839
1225.8283,524,1.6903
1225.8326,537,1.7323
1225.837,542,1.7484
1225.8413,544,1.7548
1225.8456,540,1.7419
1225.8498,533,1.7194
1225.8542,536,1.729
1225.8584,544,1.7548
1225.8627,551,1.7774
1225.8671,555,1.7903
1225.8714,552,1.7806
1225.8757,565,1.8226
1225.8799,569,1.8355
1225.8842,569,1.8355
1225.8885,570,1.8387
1225.8928,567,1.829
1225.8971,559,1.8032
1225.9014,553,1.7839
1225.9058,545,1.7581
1225.9101,539,1.7387
1225.9144,539,1.7387
1225.9187,541,1.7452
1225.923,539,1.7387
1225.9274,535,1.7258
1225.9317,532,1.7161
1225.9361,536,1.729
1225.9404,539,1.7387
1225.9447,533,1.7194
1225.9491,529,1.7065
1225.9535,524,1.6903
1225.958,521,1.6806
1225.9624,515,1.6613
1225.9668,512,1.6516
1225.9711,517,1.6677
1225.9754,540,1.7419
1225.9798,567,1.829
1225.9842,614,1.9806
1225.9885,665,2.1452
1225.9929,713,2.3
1225.9972,670,2.1613
1226.0015,568,1.8323
1226.0061,481,1.5516
1226.0116,479,1.5452
1226.0161,492,1.5871
1226.021,472,1.5226
1226.0256,447,1.4419
1226.0301,435,1.4032
1226.0348,464,1.4968
1226.0392,493,1.5903
1226.0435,523,1.6871
1226.0478,533,1.7194
1226.0521,531,1.7129
1226.0564,529,1.7065
1226.0607,529,1.7065
1226.065,535,1.7258
1226.0693,542,1.7484
1226.0736,546,1.7613
1226.0779,532,1.7161
1226.0822,518,1.671
1226.0865,517,1.6677
1226.0908,515,1.6613
1226.0951,520,1.6774
1226.0994,519,1.6742
1226.1037,516,1.6645
1226.108,512,1.6516
1226.1124,515,1.6613
1226.1168,518,1.671
1226.1211,530,1.7097
1226.1254,530,1.7097
1226.1297,528,1.7032
1226.134,529,1.7065
1226.1383,531,1.7129
1226.1426,535,1.7258
1226.147,534,1.7226
1226.1512,537,1.7323
1226.1555,538,1.7355
1226.1598,542,1.7484
1226.1642,540,1.7419
1226.1685,552,1.7806
1226.1728,562,1.8129
1226.1771,564,1.8194
1226.1814,570,1.8387
1226.1857,578,1.8645
1226.19,583,1.8806
1226.1943,589,1.9
1226.1989,587,1.8935
1226.2033,589,1.9
1226.2075,592,1.9097
1226.2118,590,1.9032
1226.2161,589,1.9
1226.2205,585,1.8871
1226.2248,586,1.8903
1226.2291,580,1.871
1226.2334,568,1.8323
1226.2377,557,1.7968
1226.242,545,1.7581
1226.2463,532,1.7161
1226.2506,520,1.6774
1226.2561,499,1.6097
1226.2608,488,1.5742
1226.2651,481,1.5516
1226.2695,478,1.5419
1226.2739,475,1.5323
1226.2782,469,1.5129
1226.2825,455,1.4677
1226.2868,444,1.4323
1226.2911,438,1.4129
1226.2954,437,1.4097
1226.2997,440,1.4194
1226.304,443,1.429
1226.3083,443,1.429
1226.3126,448,1.4452
1226.3171,460,1.4839
1226.3214,469,1.5129
1226.3257,467,1.5065
1226.33,462,1.4903
1226.3344,467,1.5065
1226.3386,472,1.5226
1226.343,469,1.5129
1226.3473,469,1.5129
1226.3515,466,1.5032
1226.3558,461,1.4871
1226.3601,461,1.4871
1226.3643,464,1.4968
1226.3686,460,1.4839
1226.3728,459,1.4806
1226.3771,462,1.4903
1226.3813,463,1.4935
1226.3856,468,1.5097
1226.3899,477,1.5387
1226.3941,483,1.5581
1226.3984,495,1.5968
1226.4026,504,1.6258
1226.4069,504,1.6258
1226.4111,501,1.6161
1226.4154,501,1.6161
1226.4197,504,1.6258
1226.424,506,1.6323
1226.4283,508,1.6387
1226.4326,508,1.6387
1226.4369,507,1.6355
1226.4412,517,1.6677
1226.4455,534,1.7226
1226.4497,541,1.7452
1226.4541,544,1.7548
1226.4583,543,1.7516
1226.4626,558,1.8
1226.467,566,1.8258
1226.4713,558,1.8
1226.4755,535,1.7258
1226.4798,515,1.6613
1226.4841,507,1.6355
1226.4884,498,1.6065
1226.4927,499,1.6097
1226.497,506,1.6323
1226.5013,506,1.6323
1226.5056,502,1.6194
1226.5099,496,1.6
1226.5142,493,1.5903
1226.5185,486,1.5677
1226.5227,483,1.5581
1226.5271,476,1.5355
1226.5314,474,1.529
1226.5357,469,1.5129
1226.5399,461,1.4871
1226.5442,460,1.4839
1226.5485,460,1.4839
1226.5528,455,1.4677
1226.5571,463,1.4935
1226.5614,478,1.5419
1226.5657,484,1.5613
1226.57,482,1.5548
1226.5743,479,1.5452
1226.5786,483,1.5581
1226.5829,487,1.571
1226.5872,492,1.5871
1226.5915,491,1.5839
1226.5958,490,1.5806
1226.6,490,1.5806
1226.6043,496,1.6
1226.6086,501,1.6161
1226.6129,505,1.629
1226.6172,507,1.6355
1226.6215,517,1.6677
1226.6258,526,1.6968
1226.6301,533,1.7194
1226.6344,534,1.7226
1226.6387,533,1.7194
1226.643,533,1.7194
1226.6472,529,1.7065
1226.6515,521,1.6806
1226.6558,509,1.6419
1226.6601,500,1.6129
1226.6644,496,1.6
1226.6687,492,1.5871
1226.673,485,1.5645
1226.6773,475,1.5323
1226.6816,466,1.5032
1226.6859,460,1.4839
1226.6902,459,1.4806
1226.6945,458,1.4774
1226.6988,456,1.471
1226.7031,461,1.4871
1226.7074,465,1.5
1226.7117,469,1.5129
1226.716,475,1.5323
1226.7203,479,1.5452
1226.7245,484,1.5613
1226.7288,485,1.5645
1226.7332,485,1.5645
1226.7374,481,1.5516
1226.7417,473,1.5258
1226.7461,470,1.5161
1226.7504,467,1.5065
1226.7547,480,1.5484
1226.7589,511,1.6484
1226.7632,551,1.7774
1226.7676,615,1.9839
1226.7719,690,2.2258
1226.7762,725,2.3387
1226.7805,647,2.0871
1226.7848,534,1.7226
1226.7891,458,1.4774
1226.7934,445,1.4355
1226.7976,444,1.4323
1226.8019,423,1.3645
1226.8063,404,1.3032
1226.8106,411,1.3258
1226.8149,440,1.4194
1226.8191,471,1.5194
1226.8234,493,1.5903
1226.8277,502,1.6194
1226.832,505,1.629
1226.8363,509,1.6419
1226.8406,517,1.6677
1226.8449,519,1.6742
1226.8493,517,1.6677
1226.8537,516,1.6645
1226.8581,518,1.671
1226.8625,519,1.6742
1226.8667,518,1.671
1226.871,514,1.6581
1226.8753,509,1.6419
1226.8796,510,1.6452
1226.8839,514,1.6581
1226.8882,517,1.6677
1226.8925,521,1.6806
1226.8968,519,1.6742
1226.9011,517,1.6677
1226.9054,516,1.6645
1226.9097,514,1.6581
1226.914,510,1.6452
1226.9183,510,1.6452
1226.9225,519,1.6742
1226.9268,526,1.6968
1226.931,529,1.7065
1226.9353,533,1.7194
1226.9396,537,1.7323
1226.9438,544,1.7548
1226.9481,548,1.7677
1226.9523,554,1.7871
1226.9566,562,1.8129
1226.9608,570,1.8387
1226.9651,579,1.8677
1226.9694,580,1.871
1226.9737,590,1.9032
1226.9779,597,1.9258
1226.9821,595,1.9194
1226.9864,599,1.9323
1226.9907,607,1.9581
1226.9949,617,1.9903
1226.9992,632,2.0387
1227.0035,640,2.0645
1227.0077,652,2.1032
1227.012,649,2.0935
1227.0163,631,2.0355
1227.0206,632,2.0387
1227.0249,641,2.0677
1227.0293,631,2.0355
1227.0336,609,1.9645
1227.0379,586,1.8903
1227.0422,568,1.8323
1227.0466,550,1.7742
1227.0509,528,1.7032
1227.0552,508,1.6387
1227.0595,502,1.6194
1227.0639,504,1.6258
1227.0682,503,1.6226
1227.0725,509,1.6419
1227.0769,512,1.6516
1227.0812,506,1.6323
1227.0855,502,1.6194
1227.0898,509,1.6419
1227.0942,500,1.6129
1227.0985,494,1.5935
1227.1029,495,1.5968
1227.1072,498,1.6065
1227.1115,500,1.6129
1227.1158,497,1.6032
1227.1202,496,1.6
1227.1245,496,1.6
1227.1288,500,1.6129
1227.1331,503,1.6226
1227.1374,496,1.6
1227.1417,487,1.571
1227.146,476,1.5355
1227.1503,462,1.4903
1227.1547,460,1.4839
1227.1591,454,1.4645
1227.1634,452,1.4581
1227.1678,445,1.4355
1227.1721,437,1.4097
1227.1764,433,1.3968
1227.1807,441,1.4226
1227.185,446,1.4387
1227.1893,449,1.4484
1227.1936,453,1.4613
1227.1979,452,1.4581
1227.2021,450,1.4516
1227.2064,451,1.4548
1227.2107,447,1.4419
1227.215,448,1.4452
1227.2193,452,1.4581
1227.2236,449,1.4484
1227.2279,451,1.4548
1227.2322,464,1.4968
1227.2365,472,1.5226
1227.2408,473,1.5258
1227.2451,465,1.5
1227.2494,458,1.4774
1227.2537,449,1.4484
1227.2579,446,1.4387
1227.2622,446,1.4387
1227.2665,453,1.4613
1227.2708,455,1.4677
1227.2751,452,1.4581
1227.2794,452,1.4581
1227.2837,457,1.4742
1227.288,471,1.5194
1227.2923,496,1.6
1227.2966,507,1.6355
1227.3008,499,1.6097
1227.3051,493,1.5903
1227.3094,502,1.6194
1227.3137,503,1.6226
1227.318,501,1.6161
1227.3223,494,1.5935
1227.3266,495,1.5968
1227.331,493,1.5903
1227.3353,499,1.6097
1227.3396,508,1.6387
1227.344,512,1.6516
1227.3483,517,1.6677
1227.3526,517,1.6677
1227.357,512,1.6516
1227.3613,508,1.6387
1227.3656,501,1.6161
1227.37,489,1.5774
1227.3743,478,1.5419
1227.3786,485,1.5645
1227.3829,505,1.629
1227.3873,518,1.671
1227.3916,517,1.6677
1227.3959,522,1.6839
1227.4003,527,1.7
1227.4046,527,1.7
1227.4089,527,1.7
1227.4132,526,1.6968
1227.4176,527,1.7
1227.4219,524,1.6903
1227.4262,519,1.6742
1227.4306,511,1.6484
1227.4349,510,1.6452
1227.4392,506,1.6323
1227.4436,502,1.6194
1227.4479,499,1.6097
1227.4522,500,1.6129
1227.4565,495,1.5968
1227.4609,483,1.5581
1227.4652,473,1.5258
1227.4695,467,1.5065
1227.4739,467,1.5065
1227.4782,467,1.5065
1227.4825,477,1.5387
1227.4868,475,1.5323
1227.4912,470,1.5161
1227.4955,471,1.5194
1227.4998,470,1.5161
1227.5041,467,1.5065
1227.5085,470,1.5161
1227.5128,468,1.5097
1227.5172,469,1.5129
1227.5215,466,1.5032
1227.5258,464,1.4968
1227.5301,463,1.4935
1227.5345,484,1.5613
1227.5388,509,1.6419
1227.5431,559,1.8032
1227.5473,631,2.0355
1227.5516,694,2.2387
1227.5559,681,2.1968
1227.5602,573,1.8484
1227.5645,474,1.529
1227.5688,432,1.3935
1227.5731,426,1.3742
1227.5774,415,1.3387
1227.5817,390,1.2581
1227.586,383,1.2355
1227.5903,399,1.2871
1227.5946,418,1.3484
1227.5989,442,1.4258
1227.6031,460,1.4839
1227.6074,470,1.5161
1227.6117,479,1.5452
1227.616,480,1.5484
1227.6203,479,1.5452
1227.6246,486,1.5677
1227.6293,484,1.5613
1227.6337,479,1.5452
1227.638,479,1.5452
1227.6424,479,1.5452
1227.6467,489,1.5774
1227.651,504,1.6258
1227.6553,513,1.6548
1227.6597,523,1.6871
1227.664,522,1.6839
1227.6683,522,1.6839
1227.6726,525,1.6935
1227.677,527,1.7
1227.6814,529,1.7065
1227.6857,538,1.7355
1227.69,547,1.7645
1227.6943,549,1.771
1227.6987,549,1.771
1227.703,551,1.7774
1227.7073,550,1.7742
1227.7116,552,1.7806
1227.716,554,1.7871
1227.7203,552,1.7806
1227.7246,557,1.7968
1227.729,562,1.8129
1227.7333,570,1.8387
1227.7376,576,1.8581
1227.7419,573,1.8484
1227.7462,571,1.8419
1227.7505,571,1.8419
1227.7549,570,1.8387
1227.7593,571,1.8419
1227.7637,574,1.8516
1227.768,570,1.8387
1227.7723,568,1.8323
1227.7766,569,1.8355
1227.7809,571,1.8419
1227.7852,572,1.8452
1227.7895,560,1.8065
1227.7938,549,1.771
1227.7981,545,1.7581
1227.8024,536,1.729
1227.8067,527,1.7
1227.811,522,1.6839
1227.8152,515,1.6613
1227.8196,496,1.6
1227.8238,480,1.5484
1227.8281,464,1.4968
1227.8324,442,1.4258
1227.8367,419,1.3516
1227.841,403,1.3
1227.8453,399,1.2871
1227.8496,401,1.2935
1227.8539,400,1.2903
1227.8582,399,1.2871
1227.8625,399,1.2871
1227.8668,396,1.2774
1227.8711,393,1.2677
1227.8753,394,1.271
1227.8796,394,1.271
1227.8839,403,1.3
1227.8882,414,1.3355
1227.8925,418,1.3484
1227.8968,425,1.371
1227.9011,425,1.371
1227.9054,427,1.3774
1227.9097,428,1.3806
1227.914,430,1.3871
1227.9182,435,1.4032
1227.9225,441,1.4226
1227.9269,448,1.4452
1227.9312,454,1.4645
1227.9356,451,1.4548
1227.9399,448,1.4452
1227.9443,449,1.4484
1227.9486,449,1.4484
1227.9529,449,1.4484
1227.9572,457,1.4742
1227.9616,462,1.4903
1227.9659,465,1.5
1227.9702,480,1.5484
1227.9745,480,1.5484
1227.9789,478,1.5419
1227.9832,480,1.5484
1227.9876,483,1.5581
1227.9919,487,1.571
1227.9962,493,1.5903
1228.0005,489,1.5774
1228.0049,484,1.5613
1228.0092,492,1.5871
1228.0135,503,1.6226
1228.0178,503,1.6226
1228.0222,497,1.6032
1228.0265,491,1.5839
1228.0308,487,1.571
1228.0351,488,1.5742
1228.0394,491,1.5839
1228.0437,491,1.5839
1228.048,497,1.6032
1228.0524,499,1.6097
1228.0568,500,1.6129
1228.0612,503,1.6226
1228.0655,504,1.6258
1228.0698,506,1.6323
1228.0741,510,1.6452
1228.0784,509,1.6419
1228.0827,512,1.6516
1228.087,516,1.6645
1228.0913,518,1.671
1228.0956,515,1.6613
1228.0999,519,1.6742
1228.1042,524,1.6903
1228.1085,526,1.6968
1228.1128,526,1.6968
1228.1171,522,1.6839
1228.1214,521,1.6806
1228.1257,520,1.6774
1228.13,519,1.6742
1228.1343,518,1.671
1228.1386,526,1.6968
1228.1429,536,1.729
1228.1472,539,1.7387
1228.1515,539,1.7387
1228.1558,536,1.729
1228.16,537,1.7323
1228.1643,542,1.7484
1228.1686,542,1.7484
1228.1729,540,1.7419
1228.1772,541,1.7452
1228.1815,539,1.7387
1228.1858,529,1.7065
1228.1901,517,1.6677
1228.1944,506,1.6323
1228.1987,497,1.6032
1228.203,494,1.5935
1228.2073,490,1.5806
1228.2116,489,1.5774
1228.2158,490,1.5806
1228.2201,487,1.571
1228.2245,482,1.5548
1228.2288,480,1.5484
1228.2331,471,1.5194
1228.2375,458,1.4774
1228.2418,454,1.4645
1228.2461,460,1.4839
1228.2504,464,1.4968
1228.2548,463,1.4935
1228.2591,463,1.4935
1228.2634,465,1.5
1228.2678,467,1.5065
1228.2721,469,1.5129
1228.2764,471,1.5194
1228.2807,469,1.5129
1228.2851,467,1.5065
1228.2894,465,1.5
1228.2937,474,1.529
1228.298,499,1.6097
1228.3024,527,1.7
1228.3067,571,1.8419
1228.311,636,2.0516
1228.3154,693,2.2355
1228.3197,659,2.1258
1228.324,558,1.8
1228.3284,468,1.5097
1228.3327,437,1.4097
1228.3371,446,1.4387
1228.3414,435,1.4032
1228.3457,408,1.3161
1228.3501,398,1.2839
1228.3545,417,1.3452
1228.3588,450,1.4516
1228.3631,478,1.5419
1228.3674,494,1.5935
1228.3718,497,1.6032
1228.3761,496,1.6
1228.3804,493,1.5903
1228.3848,495,1.5968
1228.3891,501,1.6161
1228.3934,507,1.6355
1228.3978,509,1.6419
1228.4021,510,1.6452
1228.4064,513,1.6548
1228.4107,518,1.671
1228.4151,524,1.6903
1228.4194,531,1.7129
1228.4237,535,1.7258
1228.4281,535,1.7258
1228.4324,535,1.7258
1228.4367,534,1.7226
1228.441,539,1.7387
1228.4453,548,1.7677
1228.4496,559,1.8032
1228.4539,565,1.8226
1228.4582,563,1.8161
1228.4625,562,1.8129
1228.4668,568,1.8323
1228.4711,570,1.8387
1228.4754,571,1.8419
1228.4796,576,1.8581
1228.4839,578,1.8645
1228.4882,579,1.8677
1228.4925,576,1.8581
1228.4968,575,1.8548
1228.5011,577,1.8613
1228.5054,580,1.871
1228.5097,582,1.8774
1228.514,582,1.8774
1228.5183,590,1.9032
1228.5226,594,1.9161
1228.5269,598,1.929
1228.5312,601,1.9387
1228.5355,599,1.9323
1228.5398,599,1.9323
1228.5441,598,1.929
1228.5485,590,1.9032
1228.5528,587,1.8935
1228.5572,582,1.8774
1228.5615,572,1.8452
1228.5658,564,1.8194
1228.5702,553,1.7839
1228.5745,539,1.7387
1228.5788,525,1.6935
1228.5831,505,1.629
1228.5875,493,1.5903
1228.5918,486,1.5677
1228.5961,484,1.5613
1228.6005,478,1.5419
1228.6048,474,1.529
1228.6091,468,1.5097
1228.6135,465,1.5
1228.6178,463,1.4935
1228.6221,461,1.4871
1228.6264,457,1.4742
1228.6308,456,1.471
1228.6351,457,1.4742
1228.6394,453,1.4613
1228.6437,456,1.471
1228.648,462,1.4903
1228.6523,467,1.5065
1228.6567,463,1.4935
1228.6611,463,1.4935
1228.6654,465,1.5
1228.6697,462,1.4903
1228.674,464,1.4968
1228.6783,466,1.5032
1228.6826,469,1.5129
1228.6869,474,1.529
1228.6913,478,1.5419
1228.6956,481,1.5516
1228.6998,478,1.5419
1228.7041,478,1.5419
1228.7084,477,1.5387
1228.7127,478,1.5419
1228.717,479,1.5452
1228.7213,476,1.5355
1228.7256,476,1.5355
1228.7299,475,1.5323
1228.7342,470,1.5161
1228.7385,473,1.5258
1228.7428,474,1.529
1228.7471,473,1.5258
1228.7514,478,1.5419
1228.7557,480,1.5484
1228.76,480,1.5484
1228.7643,484,1.5613
1228.7686,483,1.5581
1228.7729,483,1.5581
1228.7772,481,1.5516
1228.7815,481,1.5516
1228.7858,482,1.5548
1228.7901,487,1.571
1228.7944,485,1.5645
1228.7987,480,1.5484
1228.803,475,1.5323
1228.8073,475,1.5323
1228.8116,467,1.5065
1228.8158,461,1.4871
1228.8202,461,1.4871
1228.8245,460,1.4839
1228.8287,451,1.4548
1228.833,447,1.4419
1228.8373,452,1.4581
1228.8417,459,1.4806
1228.846,463,1.4935
1228.8504,461,1.4871
1228.8547,456,1.471
1228.859,456,1.471
1228.8633,455,1.4677
1228.8677,466,1.5032
1228.872,477,1.5387
1228.8763,490,1.5806
1228.8807,499,1.6097
1228.885,504,1.6258
1228.8893,514,1.6581
1228.8936,525,1.6935
1228.898,530,1.7097
1228.9023,529,1.7065
1228.9066,529,1.7065
1228.9109,520,1.6774
1228.9153,514,1.6581
1228.9196,513,1.6548
1228.9239,509,1.6419
1228.9282,496,1.6
1228.9326,486,1.5677
1228.9369,483,1.5581
1228.9413,483,1.5581
1228.9456,480,1.5484
1228.9499,482,1.5548
1228.9544,480,1.5484
1228.9588,476,1.5355
1228.9632,474,1.529
1228.9675,478,1.5419
1228.9719,482,1.5548
1228.9762,479,1.5452
1228.9805,484,1.5613
1228.9849,490,1.5806
1228.9892,497,1.6032
1228.9936,496,1.6
1228.9979,492,1.5871
1229.0022,486,1.5677
1229.0065,483,1.5581
1229.0109,488,1.5742
1229.0152,491,1.5839
1229.0195,500,1.6129
1229.0238,519,1.6742
1229.0282,543,1.7516
1229.0325,582,1.8774
1229.0368,641,2.0677
1229.0412,701,2.2613
1229.0455,711,2.2935
1229.0498,620,2
1229.0541,514,1.6581
1229.0583,456,1.471
1229.0626,464,1.4968
1229.067,470,1.5161
1229.0713,448,1.4452
1229.0756,428,1.3806
1229.0798,434,1.4
1229.0841,465,1.5
1229.0884,500,1.6129
1229.0927,523,1.6871
1229.0971,533,1.7194
1229.1014,533,1.7194
1229.1056,532,1.7161
1229.1099,537,1.7323
1229.1142,528,1.7032
1229.1185,519,1.6742
1229.1228,512,1.6516
1229.1271,508,1.6387
1229.1314,508,1.6387
1229.1357,509,1.6419
1229.14,512,1.6516
1229.1444,516,1.6645
1229.1487,520,1.6774
1229.1531,519,1.6742
1229.1574,521,1.6806
1229.1617,529,1.7065
1229.166,532,1.7161
1229.1704,528,1.7032
1229.1747,524,1.6903
1229.179,527,1.7
1229.1833,528,1.7032
1229.1877,536,1.729
1229.192,543,1.7516
1229.1963,538,1.7355
1229.2007,535,1.7258
1229.205,540,1.7419
1229.2093,548,1.7677
1229.2137,555,1.7903
1229.218,566,1.8258
1229.2223,575,1.8548
1229.2266,579,1.8677
1229.231,580,1.871
1229.2353,584,1.8839
1229.2403,585,1.8871
1229.2446,582,1.8774
1229.2489,577,1.8613
1229.2532,574,1.8516
1229.2575,572,1.8452
1229.2618,574,1.8516
1229.2661,574,1.8516
1229.2704,569,1.8355
1229.2747,568,1.8323
1229.279,568,1.8323
1229.2833,568,1.8323
1229.2876,568,1.8323
1229.2919,556,1.7935
1229.2962,543,1.7516
1229.3005,536,1.729
1229.3047,527,1.7
1229.309,512,1.6516
1229.3133,493,1.5903
1229.3176,474,1.529
1229.3219,459,1.4806
1229.3262,449,1.4484
1229.3305,440,1.4194
1229.3348,435,1.4032
1229.3392,428,1.3806
1229.3435,430,1.3871
1229.3479,435,1.4032
1229.3522,433,1.3968
1229.3565,433,1.3968
1229.3609,430,1.3871
1229.3652,430,1.3871
1229.3695,437,1.4097
1229.3738,442,1.4258
1229.3782,439,1.4161
1229.3825,433,1.3968
1229.3868,435,1.4032
1229.3911,435,1.4032
1229.3955,445,1.4355
1229.3998,451,1.4548
1229.4041,455,1.4677
1229.4085,460,1.4839
1229.4128,455,1.4677
1229.4172,453,1.4613
1229.4215,460,1.4839
1229.4259,466,1.5032
1229.4302,470,1.5161
1229.4345,473,1.5258
1229.4389,475,1.5323
1229.4432,481,1.5516
1229.4475,483,1.5581
1229.4518,487,1.571
1229.4561,489,1.5774
1229.4604,499,1.6097
1229.4647,506,1.6323
1229.4689,503,1.6226
1229.4732,500,1.6129
1229.4776,492,1.5871
1229.4819,485,1.5645
1229.4862,487,1.571
1229.4904,488,1.5742
1229.4947,489,1.5774
1229.4991,494,1.5935
1229.5034,496,1.6
1229.5076,499,1.6097
1229.5119,500,1.6129
1229.5162,492,1.5871
1229.5205,486,1.5677
1229.5248,486,1.5677
1229.5291,482,1.5548
1229.5334,476,1.5355
1229.5377,476,1.5355
1229.542,474,1.529
1229.5463,474,1.529
1229.5506,471,1.5194
1229.5551,465,1.5
1229.5595,460,1.4839
1229.564,464,1.4968
1229.5683,467,1.5065
1229.5726,467,1.5065
1229.577,463,1.4935
1229.5814,461,1.4871
1229.5857,458,1.4774
1229.59,463,1.4935
1229.5943,471,1.5194
1229.5987,476,1.5355
1229.603,476,1.5355
1229.6073,476,1.5355
1229.6117,476,1.5355
1229.616,483,1.5581
1229.6203,493,1.5903
1229.6246,503,1.6226
1229.629,504,1.6258
1229.6333,508,1.6387
1229.6376,516,1.6645
1229.6421,524,1.6903
1229.6464,520,1.6774
1229.6507,516,1.6645
1229.655,519,1.6742
1229.6593,514,1.6581
1229.6636,501,1.6161
1229.6679,492,1.5871
1229.6722,489,1.5774
1229.6765,484,1.5613
1229.6807,479,1.5452
1229.685,478,1.5419
1229.6893,481,1.5516
1229.6936,483,1.5581
1229.6979,479,1.5452
1229.7022,474,1.529
1229.7065,471,1.5194
1229.7108,471,1.5194
1229.7151,469,1.5129
1229.7194,468,1.5097
1229.7237,465,1.5
1229.728,457,1.4742
1229.7323,452,1.4581
1229.7365,449,1.4484
1229.7408,452,1.4581
1229.7451,452,1.4581
1229.7495,453,1.4613
1229.7538,458,1.4774
1229.7581,457,1.4742
1229.7625,451,1.4548
1229.7668,449,1.4484
1229.7711,465,1.5
1229.7754,492,1.5871
1229.7798,538,1.7355
1229.7841,599,1.9323
1229.7884,678,2.1871
1229.7928,711,2.2935
1229.7971,627,2.0226
1229.8015,518,1.671
1229.8058,457,1.4742
1229.8101,447,1.4419
1229.8144,445,1.4355
1229.8188,430,1.3871
1229.8231,425,1.371
1229.8274,440,1.4194
1229.8318,475,1.5323
1229.8361,511,1.6484
1229.8404,533,1.7194
1229.8447,538,1.7355
1229.8491,540,1.7419
1229.8535,544,1.7548
1229.8579,541,1.7452
1229.8623,538,1.7355
1229.8667,542,1.7484
1229.871,542,1.7484
1229.8753,539,1.7387
1229.8795,530,1.7097
1229.8838,530,1.7097
1229.8882,530,1.7097
1229.8924,527,1.7
1229.8967,526,1.6968
1229.901,532,1.7161
1229.9053,537,1.7323
1229.9096,541,1.7452
1229.9139,544,1.7548
1229.9182,542,1.7484
1229.9225,539,1.7387
1229.9268,540,1.7419
1229.9311,542,1.7484
1229.9354,547,1.7645
1229.9397,552,1.7806
1229.944,550,1.7742
1229.9483,553,1.7839
1229.9526,554,1.7871
1229.9569,553,1.7839
1229.9611,554,1.7871
1229.9654,560,1.8065
1229.9697,567,1.829
1229.974,574,1.8516
1229.9783,578,1.8645
1229.9826,580,1.871
1229.9869,582,1.8774
1229.9912,588,1.8968
1229.9955,591,1.9065
1229.9998,594,1.9161
1230.0041,596,1.9226
1230.0084,589,1.9
1230.0127,584,1.8839
1230.017,576,1.8581
1230.0213,568,1.8323
1230.0255,566,1.8258
1230.0298,557,1.7968
1230.0341,546,1.7613
1230.0384,538,1.7355
1230.0427,534,1.7226
1230.047,529,1.7065
1230.0514,526,1.6968
1230.0557,525,1.6935
1230.06,512,1.6516
1230.0644,499,1.6097
1230.0687,482,1.5548
1230.073,467,1.5065
1230.0773,459,1.4806
1230.0817,453,1.4613
1230.086,450,1.4516
1230.0903,451,1.4548
1230.0947,453,1.4613
1230.099,455,1.4677
1230.1033,456,1.471
1230.1076,456,1.471
1230.112,456,1.471
1230.1163,453,1.4613
1230.1206,454,1.4645
1230.125,455,1.4677
1230.1293,452,1.4581
1230.1337,449,1.4484
1230.138,447,1.4419
1230.1423,451,1.4548
1230.1467,449,1.4484
1230.1511,448,1.4452
1230.1554,443,1.429
1230.1597,443,1.429
1230.164,449,1.4484
1230.1683,456,1.471
1230.1725,458,1.4774
1230.1768,467,1.5065
1230.1811,475,1.5323
1230.1854,480,1.5484
1230.1897,488,1.5742
1230.194,486,1.5677
1230.1983,487,1.571
1230.2026,488,1.5742
1230.2069,491,1.5839
1230.2112,487,1.571
1230.2155,493,1.5903
1230.2198,499,1.6097
1230.224,506,1.6323
1230.2283,506,1.6323
1230.2326,495,1.5968
1230.237,479,1.5452
1230.2413,473,1.5258
1230.2455,475,1.5323
1230.2498,479,1.5452
1230.2542,481,1.5516
1230.2585,483,1.5581
1230.2629,486,1.5677
1230.2672,483,1.5581
1230.2715,472,1.5226
1230.2758,456,1.471
1230.2802,448,1.4452
1230.2845,448,1.4452
1230.2888,457,1.4742
1230.2931,467,1.5065
1230.2975,471,1.5194
1230.3018,476,1.5355
1230.3061,474,1.529
1230.3105,465,1.5
1230.3148,466,1.5032
1230.3191,461,1.4871
1230.3235,458,1.4774
1230.3278,460,1.4839
1230.3321,466,1.5032
1230.3364,469,1.5129
1230.3408,474,1.529
1230.3451,466,1.5032
1230.3494,455,1.4677
1230.3538,451,1.4548
1230.3581,454,1.4645
1230.3624,460,1.4839
1230.3668,468,1.5097
1230.3711,475,1.5323
1230.3754,483,1.5581
1230.3797,487,1.571
1230.3841,485,1.5645
1230.3884,481,1.5516
1230.3927,490,1.5806
1230.3971,501,1.6161
1230.4014,505,1.629
1230.4058,513,1.6548
1230.4101,520,1.6774
1230.4144,524,1.6903
1230.4187,521,1.6806
1230.4231,517,1.6677
1230.4274,515,1.6613
1230.4317,502,1.6194
1230.4361,495,1.5968
1230.4404,489,1.5774
1230.4447,479,1.5452
1230.4491,467,1.5065
1230.4534,472,1.5226
1230.4579,479,1.5452
1230.4623,474,1.529
1230.4666,470,1.5161
1230.4709,471,1.5194
1230.4752,469,1.5129
1230.4795,467,1.5065
1230.4838,462,1.4903
1230.4881,462,1.4903
1230.4924,463,1.4935
1230.4967,465,1.5
1230.501,467,1.5065
1230.5053,466,1.5032
1230.5096,469,1.5129
1230.5139,472,1.5226
1230.5182,468,1.5097
1230.5224,464,1.4968
1230.5268,460,1.4839
1230.531,456,1.471
1230.5353,448,1.4452
1230.5396,448,1.4452
1230.5439,464,1.4968
1230.5482,488,1.5742
1230.5525,532,1.7161
1230.5568,598,1.929
1230.5611,665,2.1452
1230.5654,652,2.1032
1230.5697,553,1.7839
1230.574,447,1.4419
1230.5783,402,1.2968
1230.5825,403,1.3
1230.5869,395,1.2742
1230.5911,378,1.2194
1230.5954,365,1.1774
1230.5997,371,1.1968
1230.604,402,1.2968
1230.6083,440,1.4194
1230.6126,458,1.4774
1230.6169,468,1.5097
1230.6212,471,1.5194
1230.6255,472,1.5226
1230.6298,478,1.5419
1230.6341,488,1.5742
1230.6384,493,1.5903
1230.6426,489,1.5774
1230.647,484,1.5613
1230.6514,485,1.5645
1230.6557,486,1.5677
1230.66,486,1.5677
1230.6643,486,1.5677
1230.6687,478,1.5419
1230.673,474,1.529
1230.6773,479,1.5452
1230.6816,485,1.5645
1230.686,491,1.5839
1230.6903,497,1.6032
1230.6946,503,1.6226
1230.6989,509,1.6419
1230.7033,513,1.6548
1230.7076,517,1.6677
1230.712,517,1.6677
1230.7163,516,1.6645
1230.7206,513,1.6548
1230.7249,512,1.6516
1230.7293,515,1.6613
1230.7336,517,1.6677
1230.7379,522,1.6839
1230.7423,522,1.6839
1230.7466,523,1.6871
1230.751,525,1.6935
1230.7554,532,1.7161
1230.7598,539,1.7387
1230.7642,541,1.7452
1230.7685,543,1.7516
1230.7728,548,1.7677
1230.7771,558,1.8
1230.7814,553,1.7839
1230.7857,557,1.7968
1230.79,557,1.7968
1230.7943,550,1.7742
1230.7986,547,1.7645
1230.8029,540,1.7419
1230.8072,523,1.6871
1230.8115,510,1.6452
1230.8158,496,1.6
1230.8201,495,1.5968
1230.8244,490,1.5806
1230.8287,473,1.5258
1230.833,459,1.4806
1230.8373,447,1.4419
1230.8416,437,1.4097
1230.8459,430,1.3871
1230.8507,426,1.3742
1230.8551,423,1.3645
1230.8594,420,1.3548
1230.8637,419,1.3516
1230.868,417,1.3452
1230.8722,413,1.3323
1230.8766,414,1.3355
1230.8808,417,1.3452
1230.8851,422,1.3613
1230.8894,425,1.371
1230.8937,428,1.3806
1230.898,433,1.3968
1230.9023,434,1.4
1230.9066,434,1.4
1230.9109,436,1.4065
1230.9152,439,1.4161
1230.9195,440,1.4194
1230.9238,444,1.4323
1230.928,448,1.4452
1230.9323,457,1.4742
1230.9366,465,1.5
1230.9409,463,1.4935
1230.9452,462,1.4903
1230.9495,463,1.4935
1230.9538,466,1.5032
1230.9581,471,1.5194
1230.9625,471,1.5194
1230.9668,472,1.5226
1230.9711,475,1.5323
1230.9755,476,1.5355
1230.9798,476,1.5355
1230.9841,478,1.5419
1230.9885,476,1.5355
1230.9928,483,1.5581
1230.9972,495,1.5968
1231.0015,498,1.6065
1231.0063,490,1.5806
1231.0108,479,1.5452
1231.023,476,1.5355
1231.0276,476,1.5355
1231.0321,477,1.5387
1231.0366,481,1.5516
1231.041,482,1.5548
1231.0453,482,1.5548
1231.0496,490,1.5806
1231.0538,494,1.5935
1231.0581,494,1.5935
1231.0624,493,1.5903
1231.0666,498,1.6065
1231.0708,506,1.6323
1231.075,507,1.6355
1231.0793,498,1.6065
1231.0835,491,1.5839
1231.0878,489,1.5774
1231.092,490,1.5806
1231.0962,492,1.5871
1231.1005,497,1.6032
1231.1047,500,1.6129
1231.1089,503,1.6226
1231.1132,505,1.629
1231.1174,504,1.6258
1231.1217,505,1.629
1231.1259,504,1.6258
1231.1301,501,1.6161
1231.1344,506,1.6323
1231.1386,516,1.6645
1231.1429,527,1.7
1231.1471,529,1.7065
1231.1513,526,1.6968
1231.1557,532,1.7161
1231.1599,540,1.7419
1231.1642,541,1.7452
1231.1686,537,1.7323
1231.1729,535,1.7258
1231.1771,531,1.7129
1231.1814,526,1.6968
1231.1857,517,1.6677
1231.19,516,1.6645
1231.1943,512,1.6516
1231.1986,509,1.6419
1231.2029,502,1.6194
1231.2072,503,1.6226
1231.2115,508,1.6387
1231.2158,505,1.629
1231.2202,494,1.5935
1231.2245,492,1.5871
1231.2288,502,1.6194
1231.2331,510,1.6452
1231.2374,511,1.6484
1231.2417,509,1.6419
1231.246,510,1.6452
1231.2503,511,1.6484
1231.2546,511,1.6484
1231.2589,501,1.6161
1231.2632,498,1.6065
1231.2676,495,1.5968
1231.2719,488,1.5742
1231.2762,485,1.5645
1231.2805,501,1.6161
1231.2848,509,1.6419
1231.2891,520,1.6774
1231.2934,535,1.7258
1231.2977,551,1.7774
1231.302,589,1.9
1231.3063,649,2.0935
1231.3106,698,2.2516
1231.3149,665,2.1452
1231.3192,570,1.8387
1231.3235,489,1.5774
1231.3279,467,1.5065
1231.3322,482,1.5548
1231.3365,473,1.5258
1231.3408,450,1.4516
1231.3451,445,1.4355
1231.3494,454,1.4645
1231.3537,474,1.529
1231.3591,507,1.6355
1231.3635,520,1.6774
1231.3678,523,1.6871
1231.3721,522,1.6839
1231.3764,519,1.6742
1231.3807,515,1.6613
1231.3849,510,1.6452
1231.3892,506,1.6323
1231.3935,495,1.5968
1231.3978,495,1.5968
1231.402,500,1.6129
1231.4063,506,1.6323
1231.4106,514,1.6581
1231.4149,522,1.6839
1231.4191,528,1.7032
1231.4234,532,1.7161
1231.4277,532,1.7161
1231.432,526,1.6968
1231.4363,526,1.6968
1231.4405,529,1.7065
1231.4448,531,1.7129
1231.449,526,1.6968
1231.4533,530,1.7097
1231.4576,533,1.7194
1231.4619,538,1.7355
1231.4661,540,1.7419
1231.4704,540,1.7419
1231.4747,542,1.7484
1231.4789,548,1.7677
1231.4832,555,1.7903
1231.4875,564,1.8194
1231.4918,558,1.8
1231.496,556,1.7935
1231.5003,564,1.8194
1231.5046,567,1.829
1231.5088,564,1.8194
1231.5131,568,1.8323
1231.5174,571,1.8419
1231.5217,576,1.8581
1231.5261,578,1.8645
1231.5303,575,1.8548
1231.5346,571,1.8419
1231.5388,564,1.8194
1231.5431,558,1.8
1231.5473,550,1.7742
1231.5516,537,1.7323
1231.5559,538,1.7355
1231.5602,542,1.7484
1231.5645,543,1.7516
1231.5688,537,1.7323
1231.5731,522,1.6839
1231.5774,506,1.6323
1231.5817,489,1.5774
1231.586,471,1.5194
1231.5903,451,1.4548
1231.5946,440,1.4194
1231.5989,432,1.3935
1231.6032,434,1.4
1231.6075,444,1.4323
1231.6118,451,1.4548
1231.6162,451,1.4548
1231.6205,454,1.4645
1231.6248,453,1.4613
1231.6291,457,1.4742
1231.6334,461,1.4871
1231.6377,465,1.5
1231.642,464,1.4968
1231.6463,460,1.4839
1231.6513,460,1.4839
1231.657,466,1.5032
1231.6614,467,1.5065
1231.6658,464,1.4968
1231.6701,463,1.4935
1231.6744,469,1.5129
1231.6787,476,1.5355
1231.6829,479,1.5452
1231.6872,479,1.5452
1231.6915,477,1.5387
1231.6958,469,1.5129
1231.7,467,1.5065
1231.7043,470,1.5161
1231.7086,470,1.5161
1231.7128,470,1.5161
1231.7171,472,1.5226
1231.7214,475,1.5323
1231.7258,477,1.5387
1231.7301,483,1.5581
1231.7344,489,1.5774
