time_s,adc_raw,voltage
0.0000,454,1.4645
0.0044,487,1.5710
0.0087,563,1.8161
0.0130,677,2.1839
0.0172,814,2.6258
0.0215,959,3.0935
0.0258,998,3.2194
0.0302,1003,3.2355
0.0345,1000,3.2258
0.0388,1000,3.2258
0.0430,929,2.9968
0.0474,745,2.4032
0.0517,595,1.9194
0.0563,494,1.5935
0.0607,441,1.4226
0.0657,429,1.3839
0.0701,445,1.4355
0.0744,451,1.4548
0.0789,448,1.4452
0.0832,439,1.4161
0.0876,440,1.4194
0.0920,450,1.4516
0.0963,456,1.4710
0.1008,452,1.4581
0.1052,450,1.4516
0.1095,451,1.4548
0.1139,459,1.4806
0.1182,461,1.4871
0.1226,453,1.4613
0.1269,458,1.4774
0.1312,471,1.5194
0.1356,477,1.5387
0.1400,471,1.5194
0.1443,467,1.5065
0.1491,474,1.5290
0.1535,479,1.5452
0.1578,474,1.5290
0.1621,470,1.5161
0.1663,476,1.5355
0.1708,491,1.5839
0.1753,498,1.6065
0.1798,499,1.6097
0.1844,500,1.6129
0.1890,507,1.6355
0.1933,510,1.6452
0.1977,512,1.6516
0.2021,509,1.6419
0.2067,515,1.6613
0.2128,531,1.7129
0.2175,541,1.7452
0.2221,542,1.7484
0.2268,547,1.7645
0.2315,556,1.7935
0.2364,562,1.8129
0.2413,565,1.8226
0.2462,568,1.8323
0.2512,583,1.8806
0.2560,585,1.8871
0.2604,580,1.8710
0.2649,580,1.8710
0.2694,589,1.9000
0.2738,597,1.9258
0.2783,599,1.9323
0.2828,589,1.9000
0.2873,588,1.8968
0.2917,591,1.9065
0.2972,581,1.8742
0.3016,564,1.8194
0.3060,549,1.7710
0.3104,544,1.7548
0.3148,538,1.7355
0.3195,517,1.6677
0.3239,497,1.6032
0.3283,492,1.5871
0.3326,490,1.5806
0.3369,482,1.5548
0.3413,470,1.5161
0.3457,462,1.4903
0.3501,470,1.5161
0.3545,473,1.5258
0.3592,467,1.5065
0.3635,458,1.4774
0.3679,461,1.4871
0.3722,474,1.5290
0.3766,479,1.5452
0.3810,472,1.5226
0.3854,468,1.5097
0.3898,476,1.5355
0.3942,486,1.5677
0.3986,487,1.5710
0.4030,481,1.5516
0.4073,482,1.5548
0.4117,490,1.5806
0.4161,496,1.6000
0.4207,488,1.5742
0.4250,483,1.5581
0.4294,493,1.5903
0.4337,500,1.6129
0.4381,500,1.6129
0.4425,493,1.5903
0.4469,489,1.5774
0.4512,493,1.5903
0.4558,496,1.6000
0.4602,493,1.5903
0.4646,493,1.5903
0.4690,495,1.5968
0.4733,497,1.6032
0.4777,492,1.5871
0.4824,482,1.5548
0.4871,482,1.5548
0.4915,487,1.5710
0.4959,486,1.5677
0.5003,476,1.5355
0.5047,473,1.5258
0.5091,482,1.5548
0.5135,487,1.5710
0.5178,482,1.5548
0.5222,468,1.5097
0.5266,468,1.5097
0.5310,479,1.5452
0.5354,483,1.5581
0.5398,479,1.5452
0.5442,471,1.5194
0.5486,473,1.5258
0.5530,476,1.5355
0.5574,477,1.5387
0.5618,470,1.5161
0.5662,472,1.5226
0.5706,483,1.5581
0.5750,489,1.5774
0.5794,478,1.5419
0.5840,471,1.5194
0.5884,475,1.5323
0.5928,484,1.5613
0.5973,485,1.5645
0.6017,476,1.5355
0.6060,472,1.5226
0.6104,480,1.5484
0.6148,482,1.5548
0.6192,481,1.5516
0.6236,476,1.5355
0.6280,479,1.5452
0.6324,485,1.5645
0.6367,484,1.5613
0.6411,477,1.5387
0.6455,476,1.5355
0.6499,485,1.5645
0.6544,490,1.5806
0.6587,496,1.6000
0.6631,495,1.5968
0.6675,502,1.6194
0.6719,515,1.6613
0.6763,518,1.6710
0.6807,519,1.6742
0.6851,525,1.6935
0.6894,546,1.7613
0.6938,550,1.7742
0.6982,537,1.7323
0.7026,516,1.6645
0.7070,505,1.6290
0.7114,503,1.6226
0.7158,498,1.6065
0.7202,483,1.5581
0.7246,468,1.5097
0.7290,467,1.5065
0.7334,473,1.5258
0.7378,474,1.5290
0.7422,472,1.5226
0.7466,474,1.5290
0.7510,481,1.5516
0.7554,479,1.5452
0.7598,469,1.5129
0.7642,463,1.4935
0.7687,462,1.4903
0.7731,461,1.4871
0.7775,453,1.4613
0.7819,443,1.4290
0.7862,467,1.5065
0.7908,546,1.7613
0.7955,657,2.1194
0.7999,785,2.5323
0.8043,932,3.0065
0.8087,999,3.2226
0.8131,999,3.2226
0.8175,998,3.2194
0.8220,984,3.1742
0.8264,842,2.7161
0.8309,678,2.1871
0.8353,553,1.7839
0.8397,462,1.4903
0.8441,412,1.3290
0.8484,405,1.3065
0.8528,419,1.3516
0.8571,426,1.3742
0.8615,422,1.3613
0.8658,423,1.3645
0.8702,430,1.3871
0.8745,429,1.3839
0.8789,429,1.3839
0.8833,425,1.3710
0.8876,425,1.3710
0.8920,437,1.4097
0.8964,445,1.4355
0.9008,440,1.4194
0.9051,439,1.4161
0.9095,445,1.4355
0.9139,449,1.4484
0.9182,446,1.4387
0.9226,446,1.4387
0.9269,449,1.4484
0.9313,459,1.4806
0.9356,466,1.5032
0.9400,463,1.4935
0.9444,467,1.5065
0.9487,473,1.5258
0.9531,477,1.5387
0.9574,476,1.5355
0.9618,470,1.5161
0.9662,476,1.5355
0.9705,491,1.5839
0.9755,499,1.6097
0.9798,496,1.6000
0.9842,496,1.6000
0.9885,500,1.6129
0.9929,510,1.6452
0.9972,517,1.6677
1.0016,518,1.6710
1.0059,521,1.6806
1.0103,531,1.7129
1.0146,536,1.7290
1.0190,543,1.7516
1.0234,543,1.7516
1.0277,553,1.7839
1.0321,568,1.8323
1.0370,569,1.8355
1.0414,561,1.8097
1.0457,565,1.8226
1.0501,579,1.8677
1.0544,581,1.8742
1.0588,572,1.8452
1.0632,569,1.8355
1.0675,572,1.8452
1.0719,578,1.8645
1.0762,571,1.8419
1.0805,552,1.7806
1.0849,532,1.7161
1.0892,528,1.7032
1.0936,526,1.6968
1.0986,515,1.6613
1.1029,499,1.6097
1.1072,486,1.5677
1.1115,480,1.5484
1.1158,472,1.5226
1.1201,457,1.4742
1.1244,451,1.4548
1.1287,452,1.4581
1.1329,453,1.4613
1.1372,448,1.4452
1.1415,440,1.4194
1.1458,443,1.4290
1.1501,454,1.4645
1.1543,456,1.4710
1.1586,453,1.4613
1.1629,449,1.4484
1.1672,451,1.4548
1.1716,461,1.4871
1.1759,466,1.5032
1.1803,458,1.4774
1.1846,460,1.4839
1.1892,467,1.5065
1.1935,475,1.5323
1.1978,477,1.5387
1.2021,470,1.5161
1.2065,473,1.5258
1.2108,478,1.5419
1.2151,474,1.5290
1.2194,464,1.4968
1.2237,465,1.5000
1.2280,470,1.5161
1.2323,477,1.5387
1.2366,478,1.5419
1.2409,466,1.5032
1.2457,459,1.4806
1.2500,468,1.5097
1.2543,473,1.5258
1.2586,469,1.5129
1.2629,462,1.4903
1.2674,463,1.4935
1.2719,472,1.5226
1.2775,469,1.5129
1.2818,462,1.4903
1.2866,460,1.4839
1.2909,467,1.5065
1.2951,468,1.5097
1.2994,459,1.4806
1.3036,452,1.4581
1.3079,456,1.4710
1.3121,466,1.5032
1.3163,470,1.5161
1.3205,458,1.4774
1.3248,456,1.4710
1.3291,462,1.4903
1.3333,464,1.4968
1.3375,462,1.4903
1.3418,451,1.4548
1.3461,449,1.4484
1.3503,461,1.4871
1.3546,470,1.5161
1.3589,466,1.5032
1.3632,459,1.4806
1.3674,457,1.4742
1.3717,463,1.4935
1.3759,464,1.4968
1.3801,462,1.4903
1.3846,461,1.4871
1.3888,461,1.4871
1.3930,464,1.4968
1.3973,466,1.5032
1.4015,461,1.4871
1.4057,463,1.4935
1.4100,477,1.5387
1.4142,489,1.5774
1.4184,493,1.5903
1.4226,488,1.5742
1.4268,488,1.5742
1.4311,500,1.6129
1.4354,507,1.6355
1.4398,505,1.6290
1.4441,512,1.6516
1.4484,524,1.6903
1.4526,528,1.7032
1.4568,519,1.6742
1.4610,502,1.6194
1.4652,490,1.5806
1.4694,487,1.5710
1.4737,480,1.5484
1.4779,466,1.5032
1.4821,455,1.4677
1.4867,461,1.4871
1.4912,473,1.5258
1.4955,475,1.5323
1.4997,463,1.4935
1.5040,461,1.4871
1.5082,468,1.5097
1.5125,476,1.5355
1.5167,469,1.5129
1.5210,453,1.4613
1.5252,445,1.4355
1.5295,448,1.4452
1.5337,455,1.4677
1.5380,477,1.5387
1.5422,526,1.6968
1.5464,607,1.9581
1.5507,719,2.3194
1.5549,847,2.7323
1.5591,949,3.0613
1.5633,996,3.2129
1.5675,1000,3.2258
1.5723,991,3.1968
1.5766,908,2.9290
1.5808,774,2.4968
1.5850,666,2.1484
1.5892,581,1.8742
1.5935,492,1.5871
1.5977,420,1.3548
1.6020,384,1.2387
1.6062,386,1.2452
1.6104,409,1.3194
1.6147,424,1.3677
1.6190,424,1.3677
1.6232,425,1.3710
1.6275,426,1.3742
1.6317,437,1.4097
1.6360,444,1.4323
1.6403,434,1.4000
1.6446,432,1.3935
1.6489,443,1.4290
1.6533,452,1.4581
1.6576,448,1.4452
1.6619,441,1.4226
1.6662,448,1.4452
1.6706,460,1.4839
1.6750,462,1.4903
1.6793,455,1.4677
1.6835,451,1.4548
1.6878,455,1.4677
1.6921,467,1.5065
1.6968,478,1.5419
1.7010,474,1.5290
1.7052,477,1.5387
1.7094,484,1.5613
1.7137,483,1.5581
1.7179,483,1.5581
1.7221,482,1.5548
1.7263,485,1.5645
1.7306,499,1.6097
1.7349,509,1.6419
1.7391,503,1.6226
1.7434,501,1.6161
1.7476,514,1.6581
1.7523,526,1.6968
1.7566,532,1.7161
1.7610,531,1.7129
1.7653,534,1.7226
1.7696,542,1.7484
1.7739,551,1.7774
1.7782,555,1.7903
1.7825,554,1.7871
1.7868,560,1.8065
1.7911,569,1.8355
1.7954,577,1.8613
1.7998,574,1.8516
1.8042,571,1.8419
1.8087,575,1.8548
1.8130,578,1.8645
1.8173,582,1.8774
1.8217,573,1.8484
1.8261,561,1.8097
1.8306,564,1.8194
1.8349,559,1.8032
1.8394,545,1.7581
1.8450,525,1.6935
1.8494,520,1.6774
1.8539,512,1.6516
1.8582,502,1.6194
1.8626,486,1.5677
1.8668,478,1.5419
1.8711,479,1.5452
1.8756,472,1.5226
1.8799,462,1.4903
1.8847,459,1.4806
1.8891,467,1.5065
1.8933,476,1.5355
1.8976,475,1.5323
1.9019,462,1.4903
1.9062,461,1.4871
1.9105,474,1.5290
1.9148,482,1.5548
1.9191,481,1.5516
1.9234,480,1.5484
1.9277,483,1.5581
1.9320,490,1.5806
1.9368,487,1.5710
1.9412,484,1.5613
1.9459,488,1.5742
1.9502,501,1.6161
1.9545,506,1.6323
1.9589,500,1.6129
1.9632,496,1.6000
1.9675,500,1.6129
1.9717,515,1.6613
1.9760,515,1.6613
1.9803,499,1.6097
1.9846,497,1.6032
1.9888,509,1.6419
1.9931,515,1.6613
1.9974,513,1.6548
2.0017,510,1.6452
2.0060,507,1.6355
2.0103,508,1.6387
2.0146,507,1.6355
2.0188,504,1.6258
2.0232,498,1.6065
2.0275,499,1.6097
2.0320,503,1.6226
2.0363,512,1.6516
2.0407,507,1.6355
2.0451,497,1.6032
2.0494,498,1.6065
2.0538,502,1.6194
2.0581,505,1.6290
2.0624,500,1.6129
2.0667,498,1.6065
2.0710,508,1.6387
2.0753,516,1.6645
2.0802,507,1.6355
2.0845,504,1.6258
2.0888,511,1.6484
2.0931,516,1.6645
2.0974,515,1.6613
2.1017,510,1.6452
2.1061,512,1.6516
2.1104,516,1.6645
2.1146,516,1.6645
2.1188,513,1.6548
2.1231,507,1.6355
2.1275,511,1.6484
2.1318,525,1.6935
2.1360,526,1.6968
2.1403,521,1.6806
2.1446,533,1.7194
2.1489,551,1.7774
2.1532,559,1.8032
2.1574,554,1.7871
2.1621,547,1.7645
2.1664,551,1.7774
2.1706,565,1.8226
2.1748,579,1.8677
2.1790,583,1.8806
2.1832,580,1.8710
2.1875,573,1.8484
2.1917,566,1.8258
2.1959,555,1.7903
2.2001,536,1.7290
2.2044,525,1.6935
2.2087,529,1.7065
2.2129,527,1.7000
2.2171,523,1.6871
2.2214,515,1.6613
2.2257,517,1.6677
2.2300,527,1.7000
2.2342,527,1.7000
2.2385,515,1.6613
2.2427,513,1.6548
2.2470,517,1.6677
2.2513,523,1.6871
2.2558,514,1.6581
2.2601,499,1.6097
2.2644,491,1.5839
2.2686,494,1.5935
2.2729,514,1.6581
2.2771,565,1.8226
2.2813,641,2.0677
2.2855,750,2.4194
2.2897,902,2.9097
2.2940,999,3.2226
2.2985,1002,3.2323
2.3027,1002,3.2323
2.3069,1002,3.2323
2.3112,1000,3.2258
2.3154,974,3.1419
2.3196,810,2.6129
2.3238,649,2.0935
2.3280,540,1.7419
2.3323,483,1.5581
2.3365,466,1.5032
2.3407,461,1.4871
2.3450,464,1.4968
2.3493,479,1.5452
2.3535,481,1.5516
2.3578,479,1.5452
2.3620,479,1.5452
2.3664,482,1.5548
2.3706,493,1.5903
2.3748,495,1.5968
2.3790,481,1.5516
2.3833,473,1.5258
2.3875,479,1.5452
2.3918,490,1.5806
2.3960,501,1.6161
2.4002,495,1.5968
2.4045,494,1.5935
2.4087,499,1.6097
2.4130,511,1.6484
2.4172,514,1.6581
2.4215,506,1.6323
2.4257,504,1.6258
2.4299,513,1.6548
2.4342,512,1.6516
2.4384,509,1.6419
2.4427,516,1.6645
2.4469,524,1.6903
2.4511,530,1.7097
2.4554,534,1.7226
2.4596,530,1.7097
2.4638,532,1.7161
2.4680,538,1.7355
2.4723,544,1.7548
2.4766,548,1.7677
2.4809,549,1.7710
2.4851,557,1.7968
2.4893,568,1.8323
2.4935,568,1.8323
2.4977,568,1.8323
2.5020,572,1.8452
2.5062,586,1.8903
2.5105,596,1.9226
2.5147,602,1.9419
2.5189,603,1.9452
2.5231,610,1.9677
2.5273,615,1.9839
2.5316,623,2.0097
2.5359,615,1.9839
2.5401,606,1.9548
2.5443,607,1.9581
2.5485,623,2.0097
2.5528,630,2.0323
2.5571,622,2.0065
2.5613,600,1.9355
2.5655,592,1.9097
2.5697,590,1.9032
2.5739,580,1.8710
2.5782,564,1.8194
2.5825,552,1.7806
2.5867,542,1.7484
2.5912,535,1.7258
2.5955,523,1.6871
2.5997,508,1.6387
2.6039,499,1.6097
2.6082,496,1.6000
2.6125,492,1.5871
2.6168,486,1.5677
2.6211,470,1.5161
2.6253,467,1.5065
2.6295,478,1.5419
2.6337,487,1.5710
2.6380,488,1.5742
2.6422,478,1.5419
2.6464,471,1.5194
2.6508,485,1.5645
2.6551,495,1.5968
2.6595,485,1.5645
2.6638,480,1.5484
2.6681,488,1.5742
2.6731,499,1.6097
2.6775,493,1.5903
2.6818,486,1.5677
2.6862,489,1.5774
2.6906,501,1.6161
2.6949,509,1.6419
2.6992,499,1.6097
2.7035,497,1.6032
2.7078,502,1.6194
2.7121,505,1.6290
2.7164,503,1.6226
2.7208,499,1.6097
2.7251,497,1.6032
2.7295,502,1.6194
2.7338,504,1.6258
2.7387,503,1.6226
2.7430,498,1.6065
2.7473,498,1.6065
2.7516,501,1.6161
2.7559,492,1.5871
2.7601,481,1.5516
2.7644,483,1.5581
2.7686,492,1.5871
2.7728,491,1.5839
2.7770,482,1.5548
2.7812,470,1.5161
2.7854,472,1.5226
2.7896,482,1.5548
2.7938,481,1.5516
2.7981,474,1.5290
2.8023,472,1.5226
2.8066,478,1.5419
2.8108,483,1.5581
2.8151,479,1.5452
2.8193,468,1.5097
2.8236,468,1.5097
2.8278,472,1.5226
2.8321,478,1.5419
2.8366,479,1.5452
2.8409,470,1.5161
2.8452,465,1.5000
2.8494,472,1.5226
2.8537,476,1.5355
2.8580,472,1.5226
2.8623,470,1.5161
2.8666,476,1.5355
2.8708,488,1.5742
2.8750,495,1.5968
2.8793,494,1.5935
2.8836,502,1.6194
2.8880,516,1.6645
2.8923,522,1.6839
2.8967,521,1.6806
2.9010,513,1.6548
2.9053,521,1.6806
2.9096,540,1.7419
2.9139,542,1.7484
2.9185,526,1.6968
2.9228,513,1.6548
2.9271,509,1.6419
2.9313,496,1.6000
2.9356,480,1.5484
2.9398,460,1.4839
2.9441,455,1.4677
2.9483,466,1.5032
2.9537,478,1.5419
2.9580,473,1.5258
2.9623,464,1.4968
2.9666,466,1.5032
2.9708,472,1.5226
2.9750,472,1.5226
2.9799,457,1.4742
2.9842,452,1.4581
2.9885,454,1.4645
2.9929,446,1.4387
2.9972,431,1.3903
3.0015,430,1.3871
3.0058,475,1.5323
3.0102,558,1.8000
3.0145,652,2.1032
3.0187,771,2.4871
3.0230,925,2.9839
3.0273,1000,3.2258
3.0316,1003,3.2355
3.0359,1002,3.2323
3.0402,999,3.2226
3.0444,960,3.0968
3.0487,792,2.5548
3.0529,623,2.0097
3.0572,499,1.6097
3.0617,428,1.3806
3.0660,422,1.3613
3.0702,435,1.4032
3.0743,427,1.3774
3.0785,417,1.3452
3.0828,417,1.3452
3.0870,420,1.3548
3.0913,430,1.3871
3.0955,429,1.3839
3.0997,423,1.3645
3.1039,427,1.3774
3.1083,440,1.4194
3.1125,445,1.4355
3.1168,437,1.4097
3.1211,425,1.3710
3.1254,425,1.3710
3.1297,440,1.4194
3.1339,451,1.4548
3.1382,447,1.4419
3.1425,446,1.4387
3.1468,453,1.4613
3.1511,463,1.4935
3.1558,457,1.4742
3.1601,452,1.4581
3.1644,463,1.4935
3.1687,479,1.5452
3.1730,481,1.5516
3.1773,470,1.5161
3.1816,461,1.4871
3.1859,468,1.5097
3.1903,485,1.5645
3.1946,489,1.5774
3.1988,490,1.5806
3.2031,496,1.6000
3.2074,506,1.6323
3.2118,519,1.6742
3.2161,523,1.6871
3.2204,520,1.6774
3.2246,526,1.6968
3.2295,539,1.7387
3.2338,542,1.7484
3.2381,544,1.7548
3.2424,552,1.7806
3.2466,564,1.8194
3.2509,577,1.8613
3.2552,575,1.8548
3.2600,563,1.8161
3.2644,565,1.8226
3.2687,583,1.8806
3.2730,591,1.9065
3.2772,591,1.9065
3.2815,578,1.8645
3.2858,577,1.8613
3.2900,589,1.9000
3.2943,586,1.8903
3.2986,567,1.8290
3.3029,546,1.7613
3.3071,541,1.7452
3.3115,539,1.7387
3.3159,520,1.6774
3.3201,494,1.5935
3.3244,476,1.5355
3.3287,484,1.5613
3.3330,482,1.5548
3.3372,471,1.5194
3.3415,461,1.4871
3.3457,459,1.4806
3.3500,461,1.4871
3.3542,459,1.4806
3.3585,454,1.4645
3.3627,451,1.4548
3.3669,455,1.4677
3.3712,459,1.4806
3.3754,458,1.4774
3.3797,455,1.4677
3.3839,461,1.4871
3.3881,471,1.5194
3.3929,479,1.5452
3.3972,479,1.5452
3.4015,468,1.5097
3.4058,463,1.4935
3.4101,470,1.5161
3.4144,467,1.5065
3.4187,466,1.5032
3.4230,476,1.5355
3.4273,486,1.5677
3.4316,490,1.5806
3.4364,484,1.5613
3.4408,473,1.5258
3.4451,475,1.5323
3.4501,489,1.5774
3.4544,491,1.5839
3.4588,482,1.5548
3.4631,477,1.5387
3.4674,485,1.5645
3.4717,494,1.5935
3.4760,488,1.5742
3.4803,469,1.5129
3.4845,464,1.4968
3.4888,480,1.5484
3.4930,485,1.5645
3.4973,474,1.5290
3.5016,462,1.4903
3.5059,465,1.5000
3.5102,483,1.5581
3.5145,487,1.5710
3.5188,473,1.5258
3.5230,469,1.5129
3.5272,480,1.5484
3.5319,479,1.5452
3.5364,466,1.5032
3.5407,453,1.4613
3.5449,456,1.4710
3.5491,473,1.5258
3.5534,479,1.5452
3.5579,466,1.5032
3.5622,458,1.4774
3.5664,465,1.5000
3.5707,476,1.5355
3.5750,471,1.5194
3.5793,462,1.4903
3.5836,462,1.4903
3.5879,469,1.5129
3.5923,470,1.5161
3.5967,471,1.5194
3.6010,468,1.5097
3.6054,474,1.5290
3.6098,484,1.5613
3.6143,478,1.5419
3.6187,466,1.5032
3.6231,465,1.5000
3.6275,480,1.5484
3.6320,497,1.6032
3.6371,504,1.6258
3.6415,505,1.6290
3.6460,504,1.6258
3.6504,517,1.6677
3.6556,517,1.6677
3.6600,508,1.6387
3.6644,515,1.6613
3.6689,534,1.7226
3.6734,534,1.7226
3.6779,515,1.6613
3.6823,497,1.6032
3.6868,488,1.5742
3.6911,490,1.5806
3.6955,478,1.5419
3.6999,463,1.4935
3.7044,457,1.4742
3.7087,469,1.5129
3.7136,479,1.5452
3.7180,474,1.5290
3.7224,466,1.5032
3.7268,466,1.5032
3.7312,474,1.5290
3.7356,469,1.5129
3.7400,446,1.4387
3.7448,438,1.4129
3.7492,447,1.4419
3.7535,441,1.4226
3.7583,435,1.4032
3.7627,481,1.5516
3.7671,582,1.8774
3.7715,709,2.2871
3.7759,842,2.7161
3.7803,978,3.1548
3.7847,1000,3.2258
3.7891,1002,3.2323
3.7934,1000,3.2258
3.7978,985,3.1774
3.8022,824,2.6581
3.8066,653,2.1065
3.8109,534,1.7226
3.8153,451,1.4548
3.8200,405,1.3065
3.8244,404,1.3032
3.8287,423,1.3645
3.8331,426,1.3742
3.8381,417,1.3452
3.8425,418,1.3484
3.8469,422,1.3613
3.8512,429,1.3839
3.8556,419,1.3516
3.8600,399,1.2871
3.8644,400,1.2903
3.8688,417,1.3452
3.8732,427,1.3774
3.8775,424,1.3677
3.8819,423,1.3645
3.8862,430,1.3871
3.8906,443,1.4290
3.8950,448,1.4452
3.8994,432,1.3935
3.9038,428,1.3806
3.9082,439,1.4161
3.9125,450,1.4516
3.9169,453,1.4613
3.9213,449,1.4484
3.9257,452,1.4581
3.9301,459,1.4806
3.9344,461,1.4871
3.9388,459,1.4806
3.9433,461,1.4871
3.9477,479,1.5452
3.9521,497,1.6032
3.9565,494,1.5935
3.9609,484,1.5613
3.9654,485,1.5645
3.9698,503,1.6226
3.9742,521,1.6806
3.9786,521,1.6806
3.9830,519,1.6742
3.9874,526,1.6968
3.9919,537,1.7323
3.9963,540,1.7419
4.0007,528,1.7032
4.0051,536,1.7290
4.0095,557,1.7968
4.0138,572,1.8452
4.0182,560,1.8065
4.0226,553,1.7839
4.0270,560,1.8065
4.0314,574,1.8516
4.0358,574,1.8516
4.0402,560,1.8065
4.0446,556,1.7935
4.0490,562,1.8129
4.0534,558,1.8000
4.0578,541,1.7452
4.0622,528,1.7032
4.0666,519,1.6742
4.0710,506,1.6323
4.0754,489,1.5774
4.0799,470,1.5161
4.0842,459,1.4806
4.0886,463,1.4935
4.0930,453,1.4613
4.0974,437,1.4097
4.1018,432,1.3935
4.1061,437,1.4097
4.1105,442,1.4258
4.1149,436,1.4065
4.1193,425,1.3710
4.1237,424,1.3677
4.1283,434,1.4000
4.1327,444,1.4323
4.1370,440,1.4194
4.1414,439,1.4161
4.1458,445,1.4355
4.1502,456,1.4710
4.1546,455,1.4677
4.1590,443,1.4290
4.1634,443,1.4290
4.1683,456,1.4710
4.1728,466,1.5032
4.1772,465,1.5000
4.1816,464,1.4968
4.1860,467,1.5065
4.1904,474,1.5290
4.1948,475,1.5323
4.1992,460,1.4839
4.2035,455,1.4677
4.2079,470,1.5161
4.2123,484,1.5613
4.2167,481,1.5516
4.2211,469,1.5129
4.2256,467,1.5065
4.2300,473,1.5258
4.2344,470,1.5161
4.2388,456,1.4710
4.2433,453,1.4613
4.2477,465,1.5000
4.2521,472,1.5226
4.2564,472,1.5226
4.2609,465,1.5000
4.2653,465,1.5000
4.2696,472,1.5226
4.2741,470,1.5161
4.2785,460,1.4839
4.2829,453,1.4613
4.2873,459,1.4806
4.2916,455,1.4677
4.2960,446,1.4387
4.3004,434,1.4000
4.3047,436,1.4065
4.3091,451,1.4548
4.3134,451,1.4548
4.3177,434,1.4000
4.3221,429,1.3839
4.3265,443,1.4290
4.3309,456,1.4710
4.3352,449,1.4484
4.3396,431,1.3903
4.3440,431,1.3903
4.3483,454,1.4645
4.3527,461,1.4871
4.3571,454,1.4645
4.3614,449,1.4484
4.3660,460,1.4839
4.3703,467,1.5065
4.3749,458,1.4774
4.3792,445,1.4355
4.3836,443,1.4290
4.3879,456,1.4710
4.3923,467,1.5065
4.3966,466,1.5032
4.4010,467,1.5065
4.4053,486,1.5677
4.4097,509,1.6419
4.4141,505,1.6290
4.4184,485,1.5645
4.4228,487,1.5710
4.4271,504,1.6258
4.4315,520,1.6774
4.4367,514,1.6581
4.4410,505,1.6290
4.4454,506,1.6323
4.4498,510,1.6452
4.4541,497,1.6032
4.4585,476,1.5355
4.4628,465,1.5000
4.4672,461,1.4871
4.4715,459,1.4806
4.4759,453,1.4613
4.4802,444,1.4323
4.4846,451,1.4548
4.4890,476,1.5355
4.4933,483,1.5581
4.4981,464,1.4968
4.5024,450,1.4516
4.5067,452,1.4581
4.5111,459,1.4806
4.5154,454,1.4645
4.5198,435,1.4032
4.5242,428,1.3806
4.5285,456,1.4710
4.5329,504,1.6258
4.5372,576,1.8581
4.5416,684,2.2065
4.5460,842,2.7161
4.5503,994,3.2065
4.5547,999,3.2226
4.5594,1003,3.2355
4.5638,1000,3.2258
4.5681,994,3.2065
4.5725,854,2.7548
4.5768,651,2.1000
4.5812,504,1.6258
4.5855,444,1.4323
4.5897,443,1.4290
4.5940,440,1.4194
4.5982,412,1.3290
4.6025,410,1.3226
4.6068,446,1.4387
4.6111,460,1.4839
4.6153,437,1.4097
4.6196,411,1.3258
4.6239,419,1.3516
4.6282,456,1.4710
4.6324,463,1.4935
4.6366,439,1.4161
4.6410,419,1.3516
4.6453,439,1.4161
4.6495,470,1.5161
4.6538,468,1.5097
4.6581,433,1.3968
4.6624,432,1.3935
4.6666,469,1.5129
4.6709,488,1.5742
4.6752,469,1.5129
4.6794,436,1.4065
4.6836,439,1.4161
4.6880,485,1.5645
4.6923,501,1.6161
4.6966,476,1.5355
4.7009,459,1.4806
4.7052,478,1.5419
4.7096,512,1.6516
4.7139,508,1.6387
4.7186,472,1.5226
4.7229,488,1.5742
4.7272,532,1.7161
4.7316,546,1.7613
4.7359,525,1.6935
4.7402,503,1.6226
4.7446,522,1.6839
4.7489,563,1.8161
4.7532,568,1.8323
4.7576,544,1.7548
4.7619,539,1.7387
4.7662,564,1.8194
4.7705,586,1.8903
4.7748,579,1.8677
4.7790,554,1.7871
4.7832,566,1.8258
4.7875,604,1.9484
4.7917,617,1.9903
4.7959,594,1.9161
4.8001,569,1.8355
4.8047,587,1.8935
4.8090,617,1.9903
4.8132,610,1.9677
4.8174,573,1.8484
4.8216,560,1.8065
4.8259,574,1.8516
4.8302,588,1.8968
4.8345,561,1.8097
4.8388,516,1.6645
4.8432,510,1.6452
4.8475,537,1.7323
4.8518,528,1.7032
4.8561,493,1.5903
4.8603,466,1.5032
4.8646,473,1.5258
4.8690,504,1.6258
4.8738,497,1.6032
4.8781,462,1.4903
4.8823,455,1.4677
4.8867,484,1.5613
4.8910,491,1.5839
4.8952,471,1.5194
4.8995,449,1.4484
4.9037,452,1.4581
4.9079,493,1.5903
4.9122,503,1.6226
4.9164,475,1.5323
4.9206,453,1.4613
4.9249,474,1.5290
4.9291,523,1.6871
4.9334,522,1.6839
4.9376,466,1.5032
4.9418,454,1.4645
4.9461,499,1.6097
4.9503,540,1.7419
4.9546,525,1.6935
4.9590,471,1.5194
4.9633,475,1.5323
4.9676,539,1.7387
4.9726,545,1.7581
4.9769,481,1.5516
4.9812,464,1.4968
4.9855,508,1.6387
4.9897,551,1.7774
4.9941,530,1.7097
4.9984,463,1.4935
5.0031,454,1.4645
5.0165,477,1.5387
5.0212,442,1.4258
5.0255,484,1.5613
5.0297,533,1.7194
5.0340,518,1.6710
5.0383,450,1.4516
5.0426,446,1.4387
5.0468,510,1.6452
5.0511,533,1.7194
5.0553,498,1.6065
5.0595,440,1.4194
5.0638,450,1.4516
5.0680,521,1.6806
5.0722,537,1.7323
5.0765,482,1.5548
5.0807,443,1.4290
5.0850,475,1.5323
5.0892,536,1.7290
5.0936,532,1.7161
5.0979,464,1.4968
5.1022,456,1.4710
5.1066,521,1.6806
5.1109,544,1.7548
5.1152,511,1.6484
5.1195,446,1.4387
5.1239,460,1.4839
5.1282,539,1.7387
5.1325,547,1.7645
5.1367,481,1.5516
5.1410,449,1.4484
5.1453,496,1.6000
5.1496,558,1.8000
5.1539,547,1.7645
5.1582,475,1.5323
5.1625,466,1.5032
5.1667,535,1.7258
5.1710,562,1.8129
5.1752,525,1.6935
5.1795,462,1.4903
5.1838,481,1.5516
5.1880,574,1.8516
5.1922,601,1.9387
5.1964,543,1.7516
5.2006,500,1.6129
5.2049,537,1.7323
5.2091,614,1.9806
5.2133,620,2.0000
5.2176,549,1.7710
5.2218,532,1.7161
5.2266,596,1.9226
5.2309,619,1.9968
5.2352,572,1.8452
5.2399,495,1.5968
5.2442,504,1.6258
5.2485,571,1.8419
5.2529,568,1.8323
5.2572,486,1.5677
5.2615,460,1.4839
5.2658,520,1.6774
5.2700,574,1.8516
5.2743,558,1.8000
5.2786,484,1.5613
5.2829,483,1.5581
5.2872,563,1.8161
5.2915,581,1.8742
5.2957,525,1.6935
5.3000,459,1.4806
5.3042,475,1.5323
5.3085,550,1.7742
5.3127,569,1.8355
5.3169,552,1.7806
5.3211,612,1.9742
5.3253,772,2.4903
5.3295,976,3.1484
5.3338,1000,3.2258
5.3380,1001,3.2290
5.3422,1003,3.2355
5.3469,1002,3.2323
5.3512,1000,3.2258
5.3555,967,3.1194
5.3597,752,2.4258
5.3641,606,1.9548
5.3684,576,1.8581
5.3727,534,1.7226
5.3776,446,1.4387
5.3819,442,1.4258
5.3862,516,1.6645
5.3905,556,1.7935
5.3949,520,1.6774
5.3992,453,1.4613
5.4035,465,1.5000
5.4084,557,1.7968
5.4127,555,1.7903
5.4170,473,1.5258
5.4213,450,1.4516
5.4256,508,1.6387
5.4299,561,1.8097
5.4342,544,1.7548
5.4385,471,1.5194
5.4429,474,1.5290
5.4472,559,1.8032
5.4516,575,1.8548
5.4559,520,1.6774
5.4602,484,1.5613
5.4645,518,1.6710
5.4688,575,1.8548
5.4731,564,1.8194
5.4775,503,1.6226
5.4818,505,1.6290
5.4861,568,1.8323
5.4904,591,1.9065
5.4948,560,1.8065
5.4991,513,1.6548
5.5034,539,1.7387
5.5077,607,1.9581
5.5121,606,1.9548
5.5164,548,1.7677
5.5208,536,1.7290
5.5252,588,1.8968
5.5295,640,2.0645
5.5338,622,2.0065
5.5381,560,1.8065
5.5424,562,1.8129
5.5466,637,2.0548
5.5515,664,2.1419
5.5557,614,1.9806
5.5601,581,1.8742
5.5644,613,1.9774
5.5687,677,2.1839
5.5730,671,2.1645
5.5772,604,1.9484
5.5815,597,1.9258
5.5857,654,2.1097
5.5899,683,2.2032
5.5942,655,2.1129
5.5984,598,1.9290
5.6026,600,1.9355
5.6068,656,2.1161
5.6110,652,2.1032
5.6153,599,1.9323
5.6195,555,1.7903
5.6237,567,1.8290
5.6289,615,1.9839
5.6333,579,1.8677
5.6376,500,1.6129
5.6419,492,1.5871
5.6462,551,1.7774
5.6505,561,1.8097
5.6549,515,1.6613
5.6593,463,1.4935
5.6636,486,1.5677
5.6678,548,1.7677
5.6721,541,1.7452
5.6764,479,1.5452
5.6807,465,1.5000
5.6850,510,1.6452
5.6892,562,1.8129
5.6935,543,1.7516
5.6978,476,1.5355
5.7021,478,1.5419
5.7064,540,1.7419
5.7107,561,1.8097
5.7150,529,1.7065
5.7192,487,1.5710
5.7235,504,1.6258
5.7277,560,1.8065
5.7320,552,1.7806
5.7363,494,1.5935
5.7405,477,1.5387
5.7447,519,1.6742
5.7490,570,1.8387
5.7532,554,1.7871
5.7575,483,1.5581
5.7617,478,1.5419
5.7659,540,1.7419
5.7703,564,1.8194
5.7746,532,1.7161
5.7790,480,1.5484
5.7833,498,1.6065
5.7876,567,1.8290
5.7925,571,1.8419
5.7968,512,1.6516
5.8012,501,1.6161
5.8056,553,1.7839
5.8099,580,1.8710
5.8141,548,1.7677
5.8184,487,1.5710
5.8227,494,1.5935
5.8269,559,1.8032
5.8312,561,1.8097
5.8355,505,1.6290
5.8398,468,1.5097
5.8441,494,1.5935
5.8485,547,1.7645
5.8528,537,1.7323
5.8572,469,1.5129
5.8615,462,1.4903
5.8657,518,1.6710
5.8700,543,1.7516
5.8745,506,1.6323
5.8788,456,1.4710
5.8830,472,1.5226
5.8872,535,1.7258
5.8914,538,1.7355
5.8957,487,1.5710
5.8999,463,1.4935
5.9041,496,1.6000
5.9084,549,1.7710
5.9126,533,1.7194
5.9168,467,1.5065
5.9211,470,1.5161
5.9254,529,1.7065
5.9298,557,1.7968
5.9342,523,1.6871
5.9385,465,1.5000
5.9428,480,1.5484
5.9471,542,1.7484
5.9514,544,1.7548
5.9563,480,1.5484
5.9606,466,1.5032
5.9648,510,1.6452
5.9691,553,1.7839
5.9733,538,1.7355
5.9777,476,1.5355
5.9821,484,1.5613
5.9864,556,1.7935
5.9907,572,1.8452
5.9950,530,1.7097
5.9993,483,1.5581
6.0036,511,1.6484
6.0078,584,1.8839
6.0120,593,1.9129
6.0162,535,1.7258
6.0204,508,1.6387
6.0247,536,1.7290
6.0289,571,1.8419
6.0332,549,1.7710
6.0374,480,1.5484
6.0416,473,1.5258
6.0459,525,1.6935
6.0502,540,1.7419
6.0544,506,1.6323
6.0587,457,1.4742
6.0630,473,1.5258
6.0673,540,1.7419
6.0716,541,1.7452
6.0760,477,1.5387
6.0803,456,1.4710
6.0846,491,1.5839
6.0889,530,1.7097
6.0931,507,1.6355
6.0974,440,1.4194
6.1017,434,1.4000
6.1061,505,1.6290
6.1104,569,1.8355
6.1146,612,1.9742
6.1189,671,2.1645
6.1232,841,2.7129
6.1279,999,3.2226
6.1322,1002,3.2323
6.1364,1002,3.2323
6.1407,1001,3.2290
6.1450,991,3.1968
6.1492,885,2.8548
6.1535,713,2.3000
6.1577,534,1.7226
6.1619,454,1.4645
6.1661,467,1.5065
6.1703,469,1.5129
6.1746,439,1.4161
6.1792,404,1.3032
6.1835,434,1.4000
6.1878,497,1.6032
6.1921,485,1.5645
6.1964,415,1.3387
6.2007,402,1.2968
6.2057,465,1.5000
6.2100,488,1.5742
6.2143,460,1.4839
6.2185,414,1.3355
6.2228,428,1.3806
6.2271,494,1.5935
6.2315,496,1.6000
6.2358,439,1.4161
6.2400,417,1.3452
6.2443,452,1.4581
6.2486,503,1.6226
6.2529,493,1.5903
6.2571,434,1.4000
6.2614,430,1.3871
6.2656,492,1.5871
6.2699,521,1.6806
6.2741,491,1.5839
6.2783,441,1.4226
6.2825,458,1.4774
6.2872,523,1.6871
6.2915,525,1.6935
6.2957,472,1.5226
6.2999,454,1.4645
6.3041,492,1.5871
6.3084,543,1.7516
6.3126,535,1.7258
6.3168,478,1.5419
6.3211,478,1.5419
6.3254,543,1.7516
6.3298,573,1.8484
6.3347,533,1.7194
6.3389,493,1.5903
6.3432,520,1.6774
6.3475,586,1.8903
6.3518,590,1.9032
6.3562,531,1.7129
6.3605,523,1.6871
6.3649,574,1.8516
6.3692,608,1.9613
6.3735,578,1.8645
6.3778,524,1.6903
6.3821,533,1.7194
6.3864,596,1.9226
6.3907,604,1.9484
6.3949,554,1.7871
6.3991,510,1.6452
6.4033,529,1.7065
6.4075,581,1.8742
6.4118,564,1.8194
6.4160,495,1.5968
6.4202,470,1.5161
6.4244,497,1.6032
6.4286,532,1.7161
6.4329,502,1.6194
6.4371,432,1.3935
6.4414,426,1.3742
6.4456,482,1.5548
6.4500,498,1.6065
6.4543,455,1.4677
6.4587,408,1.3161
6.4630,424,1.3677
6.4673,486,1.5677
6.4717,478,1.5419
6.4760,418,1.3484
6.4803,404,1.3032
6.4846,450,1.4516
6.4889,491,1.5839
6.4933,470,1.5161
6.4975,415,1.3387
6.5018,419,1.3516
6.5060,483,1.5581
6.5103,502,1.6194
6.5146,472,1.5226
6.5188,436,1.4065
6.5231,451,1.4548
6.5274,509,1.6419
6.5318,502,1.6194
6.5361,436,1.4065
6.5403,424,1.3677
6.5447,475,1.5323
6.5490,511,1.6484
6.5533,483,1.5581
6.5575,426,1.3742
6.5617,435,1.4032
6.5659,497,1.6032
6.5701,497,1.6032
6.5744,453,1.4613
6.5786,416,1.3419
6.5828,440,1.4194
6.5871,503,1.6226
6.5914,497,1.6032
6.5957,434,1.4000
6.6001,417,1.3452
6.6044,458,1.4774
6.6087,491,1.5839
6.6130,472,1.5226
6.6174,419,1.3516
6.6217,429,1.3839
6.6260,491,1.5839
6.6309,496,1.6000
6.6352,444,1.4323
6.6395,419,1.3516
6.6438,453,1.4613
6.6481,503,1.6226
6.6524,488,1.5742
6.6567,425,1.3710
6.6610,421,1.3581
6.6652,472,1.5226
6.6695,495,1.5968
6.6738,469,1.5129
6.6780,427,1.3774
6.6823,446,1.4387
6.6869,512,1.6516
6.6912,510,1.6452
6.6954,452,1.4581
6.6997,433,1.3968
6.7039,463,1.4935
6.7081,509,1.6419
6.7126,495,1.5968
6.7169,435,1.4032
6.7211,437,1.4097
6.7253,495,1.5968
6.7295,515,1.6613
6.7338,479,1.5452
6.7381,428,1.3806
6.7424,440,1.4194
6.7467,503,1.6226
6.7511,507,1.6355
6.7554,451,1.4548
6.7597,427,1.3774
6.7641,468,1.5097
6.7684,513,1.6548
6.7727,489,1.5774
6.7770,430,1.3871
6.7813,431,1.3903
6.7856,494,1.5935
6.7899,511,1.6484
6.7942,475,1.5323
6.7991,440,1.4194
6.8035,464,1.4968
6.8078,515,1.6613
6.8121,513,1.6548
6.8163,460,1.4839
6.8206,458,1.4774
6.8249,508,1.6387
6.8292,535,1.7258
6.8335,507,1.6355
6.8383,464,1.4968
6.8427,479,1.5452
6.8470,530,1.7097
6.8513,515,1.6613
6.8557,454,1.4645
6.8606,438,1.4129
6.8649,488,1.5742
6.8692,509,1.6419
6.8735,482,1.5548
6.8779,436,1.4065
6.8822,450,1.4516
6.8865,511,1.6484
6.8909,512,1.6516
6.8952,455,1.4677
6.8995,433,1.3968
6.9039,469,1.5129
6.9082,507,1.6355
6.9125,476,1.5355
6.9168,413,1.3323
6.9211,457,1.4742
6.9255,590,1.9032
6.9298,692,2.2323
6.9341,764,2.4645
6.9389,876,2.8258
6.9432,1000,3.2258
6.9476,1001,3.2290
6.9519,1000,3.2258
6.9562,994,3.2065
6.9605,871,2.8097
6.9649,746,2.4065
6.9692,633,2.0419
6.9735,502,1.6194
6.9778,383,1.2355
6.9821,387,1.2484
6.9865,471,1.5194
6.9908,477,1.5387
6.9952,416,1.3419
6.9996,395,1.2742
7.0039,440,1.4194
7.0082,487,1.5710
7.0125,464,1.4968
7.0168,397,1.2806
7.0211,400,1.2903
7.0255,473,1.5258
7.0298,488,1.5742
7.0341,445,1.4355
7.0384,403,1.3000
7.0428,435,1.4032
7.0471,508,1.6387
7.0514,496,1.6000
7.0557,430,1.3871
7.0601,426,1.3742
7.0644,480,1.5484
7.0687,515,1.6613
7.0731,484,1.5613
7.0774,428,1.3806
7.0817,443,1.4290
7.0860,519,1.6742
7.0903,527,1.7000
7.0947,476,1.5355
7.0990,452,1.4581
7.1033,488,1.5742
7.1076,545,1.7581
7.1120,532,1.7161
7.1163,470,1.5161
7.1206,472,1.5226
7.1249,535,1.7258
7.1293,556,1.7935
7.1336,523,1.6871
7.1379,484,1.5613
7.1428,527,1.7000
7.1473,588,1.8968
7.1517,575,1.8548
7.1560,513,1.6548
7.1603,519,1.6742
7.1646,582,1.8774
7.1690,620,2.0000
7.1733,593,1.9129
7.1776,538,1.7355
7.1819,552,1.7806
7.1863,623,2.0097
7.1912,619,1.9968
7.1955,552,1.7806
7.1998,533,1.7194
7.2043,588,1.8968
7.2086,627,2.0226
7.2129,595,1.9194
7.2172,523,1.6871
7.2215,524,1.6903
7.2259,588,1.8968
7.2302,580,1.8710
7.2345,513,1.6548
7.2389,469,1.5129
7.2432,500,1.6129
7.2477,541,1.7452
7.2520,505,1.6290
7.2564,428,1.3806
7.2606,424,1.3677
7.2650,485,1.5645
7.2699,495,1.5968
7.2742,447,1.4419
7.2786,415,1.3387
7.2829,447,1.4419
7.2875,502,1.6194
7.2919,486,1.5677
7.2962,427,1.3774
7.3005,433,1.3968
7.3048,494,1.5935
7.3092,513,1.6548
7.3135,480,1.5484
7.3178,434,1.4000
7.3221,460,1.4839
7.3271,535,1.7258
7.3314,516,1.6645
7.3357,436,1.4065
7.3401,427,1.3774
7.3444,489,1.5774
7.3488,523,1.6871
7.3532,489,1.5774
7.3575,430,1.3871
7.3618,450,1.4516
7.3662,527,1.7000
7.3705,522,1.6839
7.3748,454,1.4645
7.3792,426,1.3742
7.3835,474,1.5290
7.3878,532,1.7161
7.3929,499,1.6097
7.3972,424,1.3677
7.4015,437,1.4097
7.4058,517,1.6677
7.4101,522,1.6839
7.4145,457,1.4742
7.4188,420,1.3548
7.4231,459,1.4806
7.4274,524,1.6903
7.4317,504,1.6258
7.4361,425,1.3710
7.4404,422,1.3613
7.4448,497,1.6032
7.4491,526,1.6968
7.4534,478,1.5419
7.4578,415,1.3387
7.4621,440,1.4194
7.4664,524,1.6903
7.4708,518,1.6710
7.4757,418,1.3484
7.4800,410,1.3226
7.4843,478,1.5419
7.4891,519,1.6742
7.4939,466,1.5032
7.4982,418,1.3484
7.5025,451,1.4548
7.5068,524,1.6903
7.5113,510,1.6452
7.5156,431,1.3903
7.5200,425,1.3710
7.5243,493,1.5903
7.5286,538,1.7355
7.5329,505,1.6290
7.5372,437,1.4097
7.5416,452,1.4581
7.5459,528,1.7032
7.5503,524,1.6903
7.5546,451,1.4548
7.5590,420,1.3548
7.5633,471,1.5194
7.5676,538,1.7355
7.5719,512,1.6516
7.5768,423,1.3645
7.5812,437,1.4097
7.5855,529,1.7065
7.5900,537,1.7323
7.5944,465,1.5000
7.5987,425,1.3710
7.6030,471,1.5194
7.6073,547,1.7645
7.6116,529,1.7065
7.6160,445,1.4355
7.6203,445,1.4355
7.6246,532,1.7161
7.6289,564,1.8194
7.6332,516,1.6645
7.6381,448,1.4452
7.6425,485,1.5645
7.6468,568,1.8323
7.6511,556,1.7935
7.6555,466,1.5032
7.6598,452,1.4581
7.6641,509,1.6419
7.6684,539,1.7387
7.6728,498,1.6065
7.6771,430,1.3871
7.6814,446,1.4387
7.6860,527,1.7000
7.6907,526,1.6968
7.6954,447,1.4419
7.6997,438,1.4129
7.7039,497,1.6032
7.7081,538,1.7355
7.7123,506,1.6323
7.7165,424,1.3677
7.7207,421,1.3581
7.7249,491,1.5839
7.7291,522,1.6839
7.7339,521,1.6806
7.7382,560,1.8065
7.7425,696,2.2452
7.7468,900,2.9032
7.7511,996,3.2129
7.7556,999,3.2226
7.7601,1000,3.2258
7.7647,1001,3.2290
7.7691,981,3.1645
7.7736,782,2.5226
7.7780,577,1.8613
7.7824,496,1.6000
7.7868,503,1.6226
7.7917,464,1.4968
7.7961,393,1.2677
7.8005,407,1.3129
7.8050,490,1.5806
7.8094,496,1.6000
7.8140,432,1.3935
7.8190,395,1.2742
7.8234,447,1.4419
7.8279,496,1.6000
7.8323,460,1.4839
7.8366,388,1.2516
7.8410,402,1.2968
7.8454,488,1.5742
7.8504,493,1.5903
7.8548,424,1.3677
7.8592,409,1.3194
7.8636,468,1.5097
7.8680,514,1.6581
7.8724,481,1.5516
7.8768,417,1.3452
7.8811,435,1.4032
7.8855,513,1.6548
7.8899,520,1.6774
7.8943,463,1.4935
7.8987,439,1.4161
7.9031,487,1.5710
7.9075,544,1.7548
7.9119,523,1.6871
7.9162,450,1.4516
7.9206,459,1.4806
7.9250,537,1.7323
7.9294,549,1.7710
7.9338,497,1.6032
7.9381,463,1.4935
7.9428,512,1.6516
7.9471,576,1.8581
7.9515,568,1.8323
7.9559,507,1.6355
7.9602,515,1.6613
7.9646,585,1.8871
7.9690,606,1.9548
7.9734,565,1.8226
7.9778,524,1.6903
7.9821,558,1.8000
7.9866,629,2.0290
7.9910,623,2.0097
7.9954,552,1.7806
7.9998,549,1.7710
8.0042,609,1.9645
8.0085,642,2.0710
8.0129,606,1.9548
8.0172,545,1.7581
8.0216,548,1.7677
8.0260,603,1.9452
8.0304,598,1.9290
8.0348,530,1.7097
8.0391,496,1.6000
8.0438,530,1.7097
8.0482,548,1.7677
8.0526,511,1.6484
8.0570,453,1.4613
8.0614,457,1.4742
8.0657,509,1.6419
8.0701,501,1.6161
8.0745,439,1.4161
8.0788,413,1.3323
8.0832,451,1.4548
8.0876,499,1.6097
8.0920,476,1.5355
8.0964,415,1.3387
8.1009,426,1.3742
8.1052,494,1.5935
8.1096,498,1.6065
8.1141,449,1.4484
8.1184,426,1.3742
8.1228,467,1.5065
8.1274,517,1.6677
8.1318,495,1.5968
8.1361,433,1.3968
8.1405,444,1.4323
8.1449,510,1.6452
8.1493,515,1.6613
8.1536,471,1.5194
8.1581,440,1.4194
8.1625,473,1.5258
8.1669,520,1.6774
8.1714,498,1.6065
8.1758,441,1.4226
8.1802,452,1.4581
8.1846,515,1.6613
8.1892,523,1.6871
8.1936,475,1.5323
8.1981,439,1.4161
8.2025,470,1.5161
8.2069,522,1.6839
8.2113,507,1.6355
8.2157,442,1.4258
8.2201,442,1.4258
8.2245,502,1.6194
8.2288,515,1.6613
8.2332,475,1.5323
8.2376,432,1.3935
8.2420,456,1.4710
8.2464,513,1.6548
8.2510,504,1.6258
8.2553,440,1.4194
8.2597,439,1.4161
8.2641,494,1.5935
8.2685,508,1.6387
8.2729,472,1.5226
8.2773,430,1.3871
8.2817,457,1.4742
8.2861,522,1.6839
8.2904,513,1.6548
8.2948,447,1.4419
8.2993,437,1.4097
8.3037,488,1.5742
8.3086,518,1.6710
8.3130,479,1.5452
8.3174,433,1.3968
8.3218,463,1.4935
8.3262,526,1.6968
8.3306,518,1.6710
8.3350,449,1.4484
8.3394,435,1.4032
8.3437,494,1.5935
8.3481,529,1.7065
8.3530,491,1.5839
8.3577,438,1.4129
8.3621,469,1.5129
8.3666,537,1.7323
8.3710,523,1.6871
8.3753,447,1.4419
8.3797,443,1.4290
8.3841,512,1.6516
8.3885,545,1.7581
8.3929,507,1.6355
8.3973,451,1.4548
8.4016,470,1.5161
8.4060,540,1.7419
8.4104,537,1.7323
8.4154,460,1.4839
8.4198,452,1.4581
8.4242,523,1.6871
8.4286,548,1.7677
8.4330,514,1.6581
8.4373,474,1.5290
8.4417,505,1.6290
8.4461,569,1.8355
8.4505,556,1.7935
8.4549,489,1.5774
8.4593,487,1.5710
8.4638,555,1.7903
8.4682,587,1.8935
8.4726,543,1.7516
8.4773,468,1.5097
8.4817,486,1.5677
8.4861,555,1.7903
8.4905,546,1.7613
8.4950,478,1.5419
8.4994,470,1.5161
8.5038,531,1.7129
8.5082,560,1.8065
8.5126,527,1.7000
8.5169,471,1.5194
8.5213,492,1.5871
8.5257,563,1.8161
8.5300,554,1.7871
8.5344,475,1.5323
8.5387,442,1.4258
8.5437,511,1.6484
8.5481,588,1.8968
8.5524,630,2.0323
8.5568,667,2.1516
8.5612,811,2.6161
8.5658,999,3.2226
8.5702,1000,3.2258
8.5745,1000,3.2258
8.5789,1000,3.2258
8.5832,998,3.2194
8.5876,977,3.1516
8.5920,803,2.5903
8.5963,589,1.9000
8.6010,492,1.5871
8.6054,519,1.6742
8.6097,515,1.6613
8.6141,456,1.4710
8.6184,435,1.4032
8.6228,483,1.5581
8.6271,537,1.7323
8.6315,512,1.6516
8.6358,440,1.4194
8.6402,447,1.4419
8.6445,521,1.6806
8.6489,531,1.7129
8.6533,482,1.5548
8.6577,441,1.4226
8.6626,485,1.5645
8.6670,547,1.7645
8.6713,528,1.7032
8.6757,452,1.4581
8.6800,456,1.4710
8.6844,535,1.7258
8.6887,557,1.7968
8.6931,511,1.6484
8.6974,461,1.4871
8.7018,490,1.5806
8.7061,564,1.8194
8.7105,554,1.7871
8.7149,480,1.5484
8.7192,477,1.5387
8.7241,557,1.7968
8.7284,587,1.8935
8.7328,544,1.7548
8.7371,489,1.5774
8.7414,514,1.6581
8.7458,598,1.9290
8.7501,598,1.9290
8.7550,524,1.6903
8.7593,519,1.6742
8.7637,594,1.9161
8.7680,640,2.0645
8.7724,611,1.9710
8.7768,550,1.7742
8.7811,569,1.8355
8.7856,650,2.0968
8.7900,652,2.1032
8.7943,582,1.8774
8.7987,571,1.8419
8.8030,633,2.0419
8.8074,684,2.2065
8.8118,652,2.1032
8.8161,582,1.8774
8.8205,593,1.9129
8.8248,675,2.1774
8.8292,675,2.1774
8.8336,613,1.9774
8.8379,577,1.8613
8.8423,613,1.9774
8.8475,665,2.1452
8.8518,621,2.0032
8.8562,541,1.7452
8.8606,538,1.7355
8.8651,605,1.9516
8.8695,593,1.9129
8.8739,516,1.6645
8.8784,483,1.5581
8.8828,523,1.6871
8.8873,567,1.8290
8.8917,537,1.7323
8.8962,468,1.5097
8.9007,483,1.5581
8.9051,556,1.7935
8.9096,553,1.7839
8.9140,491,1.5839
8.9184,471,1.5194
8.9229,527,1.7000
8.9274,569,1.8355
8.9318,538,1.7355
8.9363,480,1.5484
8.9407,499,1.6097
8.9451,571,1.8419
8.9495,569,1.8355
8.9539,512,1.6516
8.9583,495,1.5968
8.9628,541,1.7452
8.9671,581,1.8742
8.9715,559,1.8032
8.9759,494,1.5935
8.9802,508,1.6387
8.9846,584,1.8839
8.9890,589,1.9000
8.9934,533,1.7194
8.9977,496,1.6000
9.0021,534,1.7226
9.0065,594,1.9161
9.0109,574,1.8516
9.0153,512,1.6516
9.0198,518,1.6710
9.0241,584,1.8839
9.0285,592,1.9097
9.0329,543,1.7516
9.0372,496,1.6000
9.0416,525,1.6935
9.0460,590,1.9032
9.0503,583,1.8806
9.0547,508,1.6387
9.0591,503,1.6226
9.0635,568,1.8323
9.0679,603,1.9452
9.0723,565,1.8226
9.0767,506,1.6323
9.0811,523,1.6871
9.0854,590,1.9032
9.0898,588,1.8968
9.0946,521,1.6806
9.0994,512,1.6516
9.1042,586,1.8903
9.1086,597,1.9258
9.1130,553,1.7839
9.1173,512,1.6516
9.1217,541,1.7452
9.1261,606,1.9548
9.1305,594,1.9161
9.1349,527,1.7000
9.1399,524,1.6903
9.1443,595,1.9194
9.1487,606,1.9548
9.1531,554,1.7871
9.1578,508,1.6387
9.1621,543,1.7516
9.1665,598,1.9290
9.1709,589,1.9000
9.1753,521,1.6806
9.1797,523,1.6871
9.1840,593,1.9129
9.1884,609,1.9645
9.1928,567,1.8290
9.1973,524,1.6903
9.2017,548,1.7677
9.2060,608,1.9613
9.2104,599,1.9323
9.2148,529,1.7065
9.2191,522,1.6839
9.2235,584,1.8839
9.2279,613,1.9774
9.2323,574,1.8516
9.2366,518,1.6710
9.2410,543,1.7516
9.2454,621,2.0032
9.2498,617,1.9903
9.2542,548,1.7677
9.2588,534,1.7226
9.2632,590,1.9032
9.2676,628,2.0258
9.2719,607,1.9581
9.2763,555,1.7903
9.2808,571,1.8419
9.2852,635,2.0484
9.2897,623,2.0097
9.2941,552,1.7806
9.2985,537,1.7323
9.3030,589,1.9000
9.3075,624,2.0129
9.3119,594,1.9161
9.3163,538,1.7355
9.3209,555,1.7903
9.3253,615,1.9839
9.3297,603,1.9452
9.3342,524,1.6903
9.3386,501,1.6161
9.3430,548,1.7677
9.3475,572,1.8452
9.3520,532,1.7161
9.3570,502,1.6194
9.3622,611,1.9710
9.3666,751,2.4226
9.3711,854,2.7548
9.3755,927,2.9903
9.3800,999,3.2226
9.3844,1003,3.2355
9.3889,1001,3.2290
9.3934,995,3.2097
9.3983,854,2.7548
9.4036,713,2.3000
9.4080,608,1.9613
9.4124,477,1.5387
9.4168,386,1.2452
9.4213,402,1.2968
9.4257,470,1.5161
9.4301,458,1.4774
9.4346,384,1.2387
9.4391,379,1.2226
9.4436,446,1.4387
9.4481,463,1.4935
9.4525,410,1.3226
9.4569,353,1.1387
9.4615,381,1.2290
9.4658,443,1.4290
9.4702,429,1.3839
9.4745,356,1.1484
9.4789,350,1.1290
9.4832,406,1.3097
9.4875,435,1.4032
9.4919,396,1.2774
9.4963,335,1.0806
9.5006,356,1.1484
9.5050,431,1.3903
9.5093,425,1.3710
9.5137,356,1.1484
9.5181,331,1.0677
9.5224,381,1.2290
9.5270,435,1.4032
9.5314,405,1.3065
9.5357,336,1.0839
9.5401,345,1.1129
9.5445,416,1.3419
9.5489,421,1.3581
9.5533,366,1.1806
9.5578,341,1.1000
9.5630,404,1.3032
9.5675,436,1.4065
9.5727,386,1.2452
9.5771,348,1.1226
9.5815,387,1.2484
9.5860,452,1.4581
9.5904,439,1.4161
9.5948,370,1.1935
9.5993,373,1.2032
9.6037,448,1.4452
9.6081,467,1.5065
9.6126,422,1.3613
9.6170,378,1.2194
9.6215,416,1.3419
9.6260,478,1.5419
9.6309,450,1.4516
9.6353,375,1.2097
9.6397,382,1.2323
9.6442,459,1.4806
9.6486,463,1.4935
9.6530,395,1.2742
9.6574,345,1.1129
9.6619,372,1.2000
9.6664,416,1.3419
9.6709,380,1.2258
9.6753,297,0.9581
9.6798,292,0.9419
9.6843,353,1.1387
9.6887,352,1.1355
9.6931,288,0.9290
9.6975,244,0.7871
9.7019,279,0.9000
9.7064,334,1.0774
9.7109,314,1.0129
9.7153,242,0.7806
9.7197,248,0.8000
9.7242,327,1.0548
9.7287,338,1.0903
9.7331,276,0.8903
9.7375,242,0.7806
9.7420,287,0.9258
9.7464,347,1.1194
9.7509,325,1.0484
9.7553,252,0.8129
9.7599,266,0.8581
9.7643,350,1.1290
9.7688,356,1.1484
9.7732,292,0.9419
9.7777,264,0.8516
9.7821,316,1.0194
9.7867,369,1.1903
9.7911,341,1.1000
9.7962,269,0.8677
9.8006,293,0.9452
9.8050,375,1.2097
9.8094,370,1.1935
9.8138,296,0.9548
9.8182,280,0.9032
9.8226,341,1.1000
9.8270,386,1.2452
9.8314,352,1.1355
9.8358,288,0.9290
9.8402,300,0.9677
9.8446,373,1.2032
9.8490,368,1.1871
9.8534,300,0.9677
9.8580,283,0.9129
9.8623,338,1.0903
9.8666,391,1.2613
9.8710,366,1.1806
9.8754,295,0.9516
9.8798,304,0.9806
9.8842,382,1.2323
9.8885,392,1.2645
9.8929,335,1.0806
9.8972,300,0.9677
9.9016,344,1.1097
9.9060,412,1.3290
9.9104,397,1.2806
9.9148,320,1.0323
9.9196,328,1.0581
9.9240,407,1.3129
9.9284,416,1.3419
9.9327,361,1.1645
9.9371,325,1.0484
9.9414,367,1.1839
9.9458,434,1.4000
9.9502,415,1.3387
9.9546,341,1.1000
9.9590,348,1.1226
9.9633,422,1.3613
9.9677,445,1.4355
9.9721,400,1.2903
9.9765,348,1.1226
9.9813,389,1.2548
9.9857,463,1.4935
9.9901,455,1.4677
9.9945,382,1.2323
9.9989,376,1.2129
10.0032,447,1.4419
10.0080,479,1.5452
10.0229,449,1.4484
10.0273,490,1.5806
10.0317,448,1.4452
10.0361,388,1.2516
10.0405,414,1.3355
10.0449,500,1.6129
10.0492,507,1.6355
10.0536,435,1.4032
10.0585,430,1.3871
10.0629,494,1.5935
10.0679,524,1.6903
10.0722,477,1.5387
10.0766,436,1.4065
10.0810,476,1.5355
10.0854,556,1.7935
10.0897,544,1.7548
10.0941,456,1.4710
10.0985,432,1.3935
10.1029,490,1.5806
10.1073,525,1.6935
10.1117,491,1.5839
10.1161,438,1.4129
10.1205,465,1.5000
10.1254,545,1.7581
10.1297,537,1.7323
10.1341,460,1.4839
10.1385,453,1.4613
10.1429,518,1.6710
10.1473,541,1.7452
10.1517,487,1.5710
10.1562,414,1.3355
10.1606,462,1.4903
10.1651,602,1.9419
10.1696,689,2.2226
10.1740,725,2.3387
10.1785,861,2.7774
10.1829,999,3.2226
10.1874,1001,3.2290
10.1918,1003,3.2355
10.1962,1000,3.2258
10.2007,990,3.1935
10.2051,906,2.9226
10.2095,727,2.3452
10.2140,521,1.6806
10.2185,442,1.4258
10.2232,508,1.6387
10.2276,539,1.7387
10.2330,473,1.5258
10.2374,441,1.4226
10.2418,496,1.6000
10.2463,555,1.7903
10.2507,525,1.6935
10.2552,447,1.4419
10.2596,462,1.4903
10.2641,546,1.7613
10.2686,552,1.7806
10.2730,474,1.5290
10.2781,463,1.4935
10.2826,535,1.7258
10.2870,581,1.8742
10.2914,544,1.7548
10.2959,477,1.5387
10.3004,501,1.6161
10.3048,586,1.8903
10.3092,590,1.9032
10.3136,517,1.6677
10.3180,501,1.6161
10.3223,562,1.8129
10.3267,610,1.9677
10.3316,568,1.8323
10.3360,511,1.6484
10.3403,541,1.7452
10.3447,625,2.0161
10.3490,620,2.0000
10.3534,554,1.7871
10.3577,538,1.7355
10.3620,600,1.9355
10.3664,661,2.1323
10.3711,626,2.0194
10.3755,556,1.7935
10.3799,583,1.8806
10.3842,681,2.1968
10.3886,692,2.2323
10.3934,617,1.9903
10.3977,595,1.9194
10.4021,660,2.1290
10.4065,726,2.3419
10.4110,696,2.2452
10.4153,619,1.9968
10.4197,636,2.0516
10.4242,727,2.3452
10.4291,728,2.3484
10.4335,645,2.0806
10.4379,630,2.0323
10.4422,697,2.2484
10.4466,747,2.4097
10.4509,710,2.2903
10.4553,623,2.0097
10.4597,624,2.0129
10.4640,707,2.2806
10.4684,700,2.2581
10.4728,614,1.9806
10.4772,558,1.8000
10.4815,599,1.9323
10.4859,655,2.1129
10.4903,620,2.0000
10.4947,530,1.7097
10.4992,527,1.7000
10.5036,606,1.9548
10.5080,617,1.9903
10.5123,557,1.7968
10.5170,505,1.6290
10.5214,543,1.7516
10.5260,610,1.9677
10.5304,589,1.9000
10.5348,512,1.6516
10.5391,522,1.6839
10.5435,607,1.9581
10.5479,620,2.0000
10.5523,561,1.8097
10.5567,517,1.6677
10.5611,556,1.7935
10.5655,626,2.0194
10.5699,616,1.9871
10.5743,541,1.7452
10.5786,538,1.7355
10.5830,614,1.9806
10.5874,641,2.0677
10.5918,590,1.9032
10.5962,522,1.6839
10.6006,552,1.7806
10.6049,634,2.0452
10.6093,625,2.0161
10.6137,544,1.7548
10.6181,535,1.7258
10.6225,604,1.9484
10.6271,638,2.0581
10.6315,590,1.9032
10.6359,520,1.6774
10.6403,545,1.7581
10.6446,626,2.0194
10.6490,620,2.0000
10.6534,545,1.7581
10.6578,529,1.7065
10.6622,588,1.8968
10.6666,631,2.0355
10.6710,590,1.9032
10.6754,516,1.6645
10.6798,536,1.7290
10.6843,624,2.0129
10.6887,625,2.0161
10.6931,554,1.7871
10.6974,519,1.6742
10.7019,565,1.8226
10.7063,620,2.0000
10.7108,586,1.8903
10.7152,511,1.6484
10.7196,531,1.7129
10.7240,618,1.9935
10.7283,624,2.0129
10.7327,553,1.7839
10.7371,517,1.6677
10.7414,566,1.8258
10.7458,632,2.0387
10.7502,609,1.9645
10.7546,521,1.6806
10.7590,524,1.6903
10.7636,617,1.9903
10.7680,631,2.0355
10.7724,569,1.8355
10.7768,522,1.6839
10.7812,567,1.8290
10.7856,637,2.0548
10.7899,611,1.9710
10.7943,521,1.6806
10.7987,529,1.7065
10.8031,614,1.9806
10.8075,638,2.0581
10.8119,584,1.8839
10.8163,525,1.6935
10.8206,554,1.7871
10.8253,634,2.0452
10.8297,619,1.9968
10.8341,538,1.7355
10.8384,534,1.7226
10.8428,606,1.9548
10.8471,640,2.0645
10.8515,603,1.9452
10.8558,542,1.7484
10.8599,560,1.8065
10.8641,639,2.0613
10.8766,551,1.7774
10.8810,595,1.9194
10.8852,667,2.1516
10.8895,642,2.0710
10.8937,548,1.7677
10.8980,527,1.7000
10.9023,590,1.9032
10.9065,637,2.0548
10.9107,605,1.9516
10.9148,527,1.7000
10.9190,537,1.7323
10.9232,622,2.0065
10.9274,636,2.0516
10.9316,579,1.8677
10.9357,514,1.6581
10.9399,536,1.7290
10.9441,622,2.0065
10.9483,614,1.9806
10.9525,537,1.7323
10.9567,487,1.5710
10.9610,545,1.7581
10.9652,672,2.1677
10.9694,743,2.3968
10.9736,760,2.4516
10.9778,874,2.8194
10.9820,1001,3.2290
10.9861,1003,3.2355
10.9903,1004,3.2387
10.9945,1003,3.2355
10.9987,1002,3.2323
11.0028,997,3.2161
11.0071,936,3.0194
11.0112,736,2.3742
11.0154,535,1.7258
11.0196,485,1.5645
11.0238,559,1.8032
11.0279,572,1.8452
11.0321,516,1.6645
11.0363,471,1.5194
11.0405,507,1.6355
11.0447,586,1.8903
11.0489,575,1.8548
11.0531,491,1.5839
11.0573,464,1.4968
11.0615,515,1.6613
11.0656,581,1.8742
11.0698,564,1.8194
11.0740,480,1.5484
11.0782,475,1.5323
11.0823,548,1.7677
11.0865,592,1.9097
11.0907,560,1.8065
11.0949,478,1.5419
11.0991,488,1.5742
11.1032,575,1.8548
11.1074,594,1.9161
11.1116,549,1.7710
11.1158,486,1.5677
11.1200,515,1.6613
11.1241,605,1.9516
11.1283,609,1.9645
11.1325,539,1.7387
11.1367,499,1.6097
11.1409,543,1.7516
11.1450,621,2.0032
11.1492,610,1.9677
11.1534,534,1.7226
11.1576,526,1.6968
11.1618,588,1.8968
11.1659,644,2.0774
11.1701,614,1.9806
11.1743,533,1.7194
11.1785,540,1.7419
11.1827,626,2.0194
11.1868,668,2.1548
11.1910,628,2.0258
11.1952,561,1.8097
11.1994,580,1.8710
11.2036,673,2.1710
11.2078,691,2.2290
11.2119,636,2.0516
11.2161,581,1.8742
11.2203,613,1.9774
11.2245,702,2.2645
11.2287,700,2.2581
11.2328,620,2.0000
11.2370,585,1.8871
11.2412,635,2.0484
11.2487,696,2.2452
11.2530,602,1.9419
11.2572,565,1.8226
11.2615,615,1.9839
11.2658,675,2.1774
11.2700,638,2.0581
11.2742,537,1.7323
11.2784,520,1.6774
11.2825,585,1.8871
11.2867,605,1.9516
11.2909,547,1.7645
11.2951,461,1.4871
11.2993,471,1.5194
11.3034,562,1.8129
11.3076,571,1.8419
11.3118,505,1.6290
11.3160,442,1.4258
11.3202,473,1.5258
11.3243,564,1.8194
11.3285,563,1.8161
11.3327,478,1.5419
11.3369,443,1.4290
11.3411,492,1.5871
11.3452,571,1.8419
11.3494,556,1.7935
11.3536,463,1.4935
11.3578,454,1.4645
11.3620,530,1.7097
11.3662,580,1.8710
11.3703,545,1.7581
11.3745,463,1.4935
11.3787,471,1.5194
11.3829,558,1.8000
11.3871,585,1.8871
11.3912,535,1.7258
11.3954,462,1.4903
11.3996,479,1.5452
11.4038,572,1.8452
11.4080,577,1.8613
11.4122,508,1.6387
11.4163,456,1.4710
11.4205,497,1.6032
11.4247,579,1.8677
11.4289,564,1.8194
11.4330,475,1.5323
11.4373,450,1.4516
11.4414,510,1.6452
11.4456,580,1.8710
11.4498,558,1.8000
11.4540,464,1.4968
11.4582,455,1.4677
11.4623,529,1.7065
11.4666,563,1.8161
11.4708,523,1.6871
11.4750,445,1.4355
11.4792,462,1.4903
11.4835,560,1.8065
11.4878,568,1.8323
11.4921,493,1.5903
11.4964,437,1.4097
11.5007,477,1.5387
11.5050,556,1.7935
11.5093,536,1.7290
11.5136,443,1.4290
11.5179,438,1.4129
11.5222,518,1.6710
11.5265,562,1.8129
11.5308,516,1.6645
11.5351,432,1.3935
11.5394,450,1.4516
11.5437,549,1.7710
11.5480,557,1.7968
11.5524,483,1.5581
11.5567,440,1.4194
11.5610,487,1.5710
11.5653,560,1.8065
11.5696,538,1.7355
11.5739,444,1.4323
11.5782,448,1.4452
11.5825,533,1.7194
11.5868,558,1.8000
11.5911,508,1.6387
11.5954,432,1.3935
11.5997,456,1.4710
11.6040,552,1.7806
11.6083,550,1.7742
11.6126,471,1.5194
11.6169,439,1.4161
11.6212,495,1.5968
11.6255,563,1.8161
11.6298,538,1.7355
11.6341,446,1.4387
11.6384,449,1.4484
11.6427,542,1.7484
11.6470,572,1.8452
11.6512,522,1.6839
11.6556,455,1.4677
11.6599,481,1.5516
11.6642,571,1.8419
11.6684,573,1.8484
11.6727,494,1.5935
11.6770,471,1.5194
11.6814,527,1.7000
11.6857,577,1.8613
11.6900,537,1.7323
11.6943,443,1.4290
11.6986,444,1.4323
11.7029,527,1.7000
11.7071,546,1.7613
11.7114,499,1.6097
11.7158,442,1.4258
11.7201,473,1.5258
11.7244,551,1.7774
11.7287,543,1.7516
11.7330,457,1.4742
11.7373,433,1.3968
11.7416,491,1.5839
11.7459,536,1.7290
11.7502,494,1.5935
11.7545,424,1.3677
11.7588,474,1.5290
11.7631,630,2.0323
11.7674,736,2.3742
11.7716,806,2.6000
11.7759,898,2.8968
11.7802,1000,3.2258
11.7846,1000,3.2258
11.7889,1002,3.2323
11.7932,997,3.2161
11.7975,892,2.8774
11.8018,767,2.4742
11.8061,668,2.1548
11.8104,530,1.7097
11.8147,392,1.2645
11.8190,385,1.2419
11.8233,483,1.5581
11.8275,501,1.6161
11.8318,441,1.4226
11.8361,395,1.2742
11.8404,432,1.3935
11.8447,508,1.6387
11.8490,492,1.5871
11.8533,406,1.3097
11.8576,399,1.2871
11.8621,482,1.5548
11.8665,521,1.6806
11.8708,473,1.5258
11.8751,392,1.2645
11.8794,411,1.3258
11.8837,506,1.6323
11.8880,513,1.6548
11.8923,445,1.4355
11.8966,408,1.3161
11.9009,461,1.4871
11.9052,537,1.7323
11.9095,519,1.6742
11.9138,429,1.3839
11.9181,429,1.3839
11.9224,508,1.6387
11.9267,537,1.7323
11.9310,494,1.5935
11.9353,428,1.3806
11.9396,454,1.4645
11.9439,550,1.7742
11.9482,552,1.7806
11.9525,474,1.5290
11.9568,451,1.4548
11.9611,515,1.6613
11.9654,579,1.8677
11.9697,554,1.7871
11.9740,470,1.5161
11.9783,480,1.5484
11.9826,573,1.8484
11.9870,604,1.9484
11.9913,549,1.7710
11.9956,486,1.5677
11.9999,523,1.6871
12.0042,621,2.0032
12.0085,623,2.0097
12.0128,541,1.7452
12.0171,519,1.6742
12.0214,581,1.8742
12.0257,646,2.0839
12.0300,613,1.9774
12.0343,525,1.6935
12.0386,530,1.7097
12.0429,619,1.9968
12.0472,630,2.0323
12.0515,559,1.8032
12.0558,492,1.5871
12.0601,515,1.6613
12.0644,586,1.8903
12.0686,565,1.8226
12.0729,463,1.4935
12.0772,432,1.3935
12.0815,491,1.5839
12.0858,537,1.7323
12.0902,491,1.5839
12.0945,397,1.2806
12.0988,406,1.3097
12.1032,499,1.6097
12.1076,500,1.6129
12.1119,427,1.3774
12.1162,384,1.2387
12.1206,438,1.4129
12.1249,520,1.6774
12.1292,493,1.5903
12.1336,396,1.2774
12.1379,390,1.2581
12.1422,474,1.5290
12.1466,507,1.6355
12.1509,462,1.4903
12.1552,396,1.2774
12.1597,428,1.3806
12.1642,520,1.6774
12.1687,509,1.6419
12.1730,420,1.3548
12.1774,405,1.3065
12.1817,479,1.5452
12.1861,529,1.7065
12.1905,487,1.5710
12.1948,409,1.3194
12.1991,429,1.3839
12.2034,521,1.6806
12.2077,527,1.7000
12.2120,455,1.4677
12.2163,412,1.3290
12.2206,454,1.4645
12.2249,524,1.6903
12.2292,502,1.6194
12.2335,414,1.3355
12.2378,410,1.3226
12.2421,492,1.5871
12.2464,528,1.7032
12.2507,481,1.5516
12.2550,407,1.3129
12.2593,427,1.3774
12.2636,515,1.6613
12.2679,513,1.6548
12.2722,438,1.4129
12.2765,403,1.3000
12.2808,451,1.4548
12.2851,522,1.6839
12.2894,497,1.6032
12.2938,408,1.3161
12.2980,411,1.3258
12.3023,499,1.6097
12.3066,525,1.6935
12.3109,472,1.5226
12.3152,406,1.3097
12.3195,437,1.4097
12.3238,525,1.6935
12.3281,509,1.6419
12.3324,422,1.3613
12.3367,397,1.2806
12.3410,462,1.4903
12.3453,533,1.7194
12.3496,504,1.6258
12.3539,408,1.3161
12.3582,412,1.3290
12.3625,500,1.6129
12.3668,521,1.6806
12.3711,472,1.5226
12.3754,410,1.3226
12.3797,439,1.4161
12.3839,525,1.6935
12.3882,517,1.6677
12.3925,439,1.4161
12.3969,420,1.3548
12.4012,482,1.5548
12.4056,533,1.7194
12.4099,502,1.6194
12.4142,417,1.3452
12.4186,425,1.3710
12.4229,517,1.6677
12.4274,532,1.7161
12.4318,464,1.4968
12.4361,425,1.3710
12.4404,476,1.5355
12.4448,553,1.7839
12.4491,532,1.7161
12.4534,442,1.4258
12.4578,444,1.4323
12.4621,535,1.7258
12.4664,567,1.8290
12.4708,521,1.6806
12.4751,447,1.4419
12.4794,460,1.4839
12.4837,540,1.7419
12.4880,531,1.7129
12.4923,444,1.4323
12.4966,414,1.3355
12.5010,480,1.5484
12.5053,542,1.7484
12.5096,517,1.6677
12.5139,427,1.3774
12.5182,431,1.3903
12.5224,518,1.6710
12.5267,541,1.7452
12.5309,486,1.5677
12.5352,406,1.3097
12.5395,427,1.3774
12.5437,519,1.6742
12.5480,541,1.7452
12.5523,513,1.6548
12.5565,562,1.8129
12.5608,720,2.3226
12.5651,931,3.0032
12.5694,997,3.2161
12.5737,999,3.2226
12.5780,998,3.2194
12.5822,1001,3.2290
12.5865,983,3.1710
12.5908,808,2.6065
12.5950,599,1.9323
12.5993,513,1.6548
12.6036,529,1.7065
12.6079,492,1.5871
12.6122,402,1.2968
12.6166,369,1.1903
12.6209,430,1.3871
12.6252,503,1.6226
12.6296,482,1.5548
12.6339,395,1.2742
12.6382,399,1.2871
12.6425,487,1.5710
12.6468,502,1.6194
12.6511,442,1.4258
12.6554,380,1.2258
12.6599,424,1.3677
12.6642,514,1.6581
12.6685,506,1.6323
12.6728,417,1.3452
12.6771,405,1.3065
12.6814,478,1.5419
12.6857,527,1.7000
12.6900,491,1.5839
12.6943,407,1.3129
12.6986,424,1.3677
12.7030,528,1.7032
12.7074,539,1.7387
12.7117,466,1.5032
12.7160,420,1.3548
12.7202,465,1.5000
12.7245,545,1.7581
12.7288,532,1.7161
12.7330,447,1.4419
12.7373,446,1.4387
12.7416,528,1.7032
12.7459,576,1.8581
12.7501,536,1.7290
12.7544,457,1.4742
12.7589,488,1.5742
12.7634,585,1.8871
12.7678,584,1.8839
12.7726,500,1.6129
12.7769,489,1.5774
12.7812,555,1.7903
12.7854,616,1.9871
12.7897,592,1.9097
12.7940,517,1.6677
12.7983,525,1.6935
12.8025,609,1.9645
12.8068,628,2.0258
12.8111,577,1.8613
12.8154,525,1.6935
12.8196,558,1.8000
12.8239,632,2.0387
12.8282,627,2.0226
12.8324,552,1.7806
12.8367,531,1.7129
12.8410,572,1.8452
12.8453,611,1.9710
12.8495,576,1.8581
12.8539,487,1.5710
12.8582,479,1.5452
12.8625,546,1.7613
12.8668,555,1.7903
12.8710,495,1.5968
12.8753,430,1.3871
12.8796,447,1.4419
12.8838,515,1.6613
12.8881,499,1.6097
12.8924,416,1.3419
12.8967,392,1.2645
12.9009,448,1.4452
12.9052,509,1.6419
12.9094,484,1.5613
12.9137,401,1.2935
12.9180,405,1.3065
12.9223,489,1.5774
12.9266,508,1.6387
12.9309,454,1.4645
12.9352,396,1.2774
12.9396,430,1.3871
12.9439,516,1.6645
12.9482,514,1.6581
12.9525,433,1.3968
12.9568,411,1.3258
12.9611,477,1.5387
12.9654,539,1.7387
12.9697,511,1.6484
12.9740,421,1.3581
12.9783,425,1.3710
12.9826,515,1.6613
12.9869,532,1.7161
12.9912,467,1.5065
12.9955,408,1.3161
12.9998,445,1.4355
13.0041,533,1.7194
13.0088,519,1.6742
13.0131,426,1.3742
13.0175,422,1.3613
13.0218,508,1.6387
13.0260,540,1.7419
13.0303,491,1.5839
13.0346,403,1.3000
13.0389,423,1.3645
13.0432,526,1.6968
13.0475,530,1.7097
13.0517,451,1.4548
13.0560,404,1.3032
13.0605,461,1.4871
13.0649,532,1.7161
13.0693,505,1.6290
13.0736,410,1.3226
13.0778,411,1.3258
13.0821,503,1.6226
13.0864,530,1.7097
13.0912,458,1.4774
13.0955,399,1.2871
13.0998,443,1.4290
13.1041,531,1.7129
13.1083,517,1.6677
13.1127,422,1.3613
13.1169,411,1.3258
13.1212,485,1.5645
13.1255,531,1.7129
13.1298,493,1.5903
13.1340,406,1.3097
13.1383,423,1.3645
13.1426,523,1.6871
13.1469,534,1.7226
13.1511,470,1.5161
13.1554,410,1.3226
13.1596,449,1.4484
13.1639,538,1.7355
13.1682,525,1.6935
13.1725,430,1.3871
13.1767,415,1.3387
13.1812,496,1.6000
13.1855,555,1.7903
13.1898,510,1.6452
13.1940,411,1.3258
13.1983,425,1.3710
13.2026,533,1.7194
13.2068,551,1.7774
13.2111,488,1.5742
13.2154,427,1.3774
13.2197,468,1.5097
13.2239,567,1.8290
13.2282,558,1.8000
13.2325,460,1.4839
13.2368,441,1.4226
13.2410,516,1.6645
13.2453,576,1.8581
13.2496,546,1.7613
13.2539,456,1.4710
13.2581,466,1.5032
13.2627,565,1.8226
13.2671,561,1.8097
13.2713,475,1.5323
13.2756,413,1.3323
13.2799,458,1.4774
13.2842,545,1.7581
13.2885,529,1.7065
13.2927,433,1.3968
13.2970,423,1.3645
13.3013,497,1.6032
13.3055,548,1.7677
13.3098,508,1.6387
13.3141,419,1.3516
13.3188,436,1.4065
13.3231,530,1.7097
13.3273,523,1.6871
13.3316,431,1.3903
13.3359,384,1.2387
13.3401,460,1.4839
13.3444,603,1.9452
13.3487,673,2.1710
13.3529,687,2.2161
13.3572,823,2.6548
13.3614,1000,3.2258
13.3657,1000,3.2258
13.3700,1002,3.2323
13.3743,998,3.2194
13.3786,947,3.0548
13.3828,866,2.7935
13.3871,714,2.3032
13.3914,517,1.6677
13.3956,389,1.2548
13.3999,407,1.3129
13.4042,494,1.5935
13.4084,486,1.5677
13.4127,391,1.2613
13.4170,378,1.2194
13.4213,454,1.4645
13.4257,506,1.6323
13.4300,461,1.4871
13.4343,373,1.2032
13.4386,392,1.2645
13.4428,497,1.6032
13.4471,507,1.6355
13.4514,430,1.3871
13.4557,380,1.2258
13.4599,430,1.3871
13.4642,519,1.6742
13.4685,503,1.6226
13.4727,406,1.3097
13.4770,398,1.2839
13.4813,483,1.5581
13.4856,535,1.7258
13.4898,491,1.5839
13.4941,401,1.2935
13.4984,424,1.3677
13.5027,532,1.7161
13.5071,542,1.7484
13.5113,470,1.5161
13.5157,420,1.3548
13.5200,474,1.5290
13.5242,565,1.8226
13.5285,548,1.7677
13.5328,444,1.4323
13.5371,435,1.4032
13.5413,523,1.6871
13.5456,579,1.8677
13.5498,543,1.7516
13.5541,462,1.4903
13.5584,488,1.5742
13.5627,592,1.9097
13.5669,601,1.9387
13.5712,537,1.7323
13.5755,499,1.6097
13.5798,550,1.7742
13.5840,639,2.0613
13.5883,625,2.0161
13.5926,530,1.7097
13.5969,520,1.6774
13.6011,602,1.9419
13.6054,654,2.1097
13.6097,615,1.9839
13.6139,523,1.6871
13.6182,532,1.7161
13.6225,634,2.0452
13.6268,644,2.0774
13.6311,563,1.8161
13.6354,495,1.5968
13.6398,532,1.7161
13.6440,615,1.9839
13.6483,584,1.8839
13.6527,472,1.5226
13.6570,447,1.4419
13.6614,521,1.6806
13.6658,560,1.8065
13.6702,486,1.5677
13.6746,398,1.2839
13.6789,420,1.3548
13.6833,522,1.6839
13.6876,513,1.6548
13.6919,415,1.3387
13.6963,382,1.2323
13.7006,449,1.4484
13.7049,516,1.6645
13.7092,485,1.5645
13.7136,389,1.2548
13.7179,396,1.2774
13.7223,501,1.6161
13.7266,521,1.6806
13.7308,454,1.4645
13.7351,391,1.2613
13.7394,438,1.4129
13.7437,535,1.7258
13.7480,526,1.6968
13.7523,424,1.3677
13.7566,406,1.3097
13.7609,481,1.5516
13.7652,542,1.7484
13.7695,506,1.6323
13.7738,415,1.3387
13.7781,426,1.3742
13.7824,527,1.7000
13.7867,536,1.7290
13.7910,464,1.4968
13.7953,405,1.3065
13.7996,444,1.4323
13.8039,534,1.7226
13.8082,520,1.6774
13.8125,424,1.3677
13.8168,414,1.3355
13.8211,491,1.5839
13.8254,540,1.7419
13.8298,496,1.6000
13.8341,408,1.3161
13.8384,426,1.3742
13.8428,527,1.7000
13.8471,526,1.6968
13.8514,440,1.4194
13.8558,393,1.2677
13.8601,449,1.4484
13.8644,526,1.6968
13.8688,502,1.6194
13.8731,404,1.3032
13.8774,406,1.3097
13.8818,506,1.6323
13.8861,534,1.7226
13.8904,470,1.5161
13.8948,397,1.2806
13.8991,434,1.4000
13.9034,532,1.7161
13.9078,520,1.6774
13.9121,424,1.3677
13.9164,408,1.3161
13.9208,486,1.5677
13.9251,539,1.7387
13.9294,495,1.5968
13.9337,396,1.2774
13.9380,403,1.3000
13.9423,512,1.6516
13.9466,528,1.7032
13.9509,460,1.4839
13.9552,399,1.2871
13.9595,442,1.4258
13.9639,534,1.7226
13.9683,519,1.6742
13.9726,420,1.3548
13.9769,415,1.3387
13.9812,500,1.6129
13.9855,543,1.7516
13.9898,497,1.6032
13.9941,408,1.3161
13.9984,428,1.3806
14.0027,533,1.7194
14.0070,538,1.7355
14.0113,455,1.4677
14.0156,406,1.3097
14.0199,462,1.4903
14.0242,556,1.7935
14.0285,539,1.7387
14.0329,441,1.4226
14.0372,439,1.4161
14.0415,525,1.6935
14.0459,558,1.8000
14.0502,512,1.6516
14.0545,445,1.4355
14.0588,479,1.5452
14.0632,574,1.8516
14.0675,554,1.7871
14.0718,447,1.4419
14.0762,413,1.3323
14.0805,480,1.5484
14.0848,547,1.7645
14.0892,512,1.6516
14.0935,417,1.3452
14.0978,431,1.3903
14.1021,534,1.7226
14.1065,549,1.7710
14.1108,473,1.5258
14.1152,409,1.3194
14.1196,456,1.4710
14.1239,541,1.7452
14.1283,515,1.6613
14.1326,407,1.3129
14.1369,412,1.3290
14.1411,547,1.7645
14.1454,678,2.1871
14.1497,737,2.3774
14.1540,784,2.5290
14.1583,941,3.0355
14.1626,1002,3.2323
14.1669,1001,3.2290
14.1712,999,3.2226
14.1755,969,3.1258
14.1798,838,2.7032
14.1841,745,2.4032
14.1884,596,1.9226
14.1927,417,1.3452
14.1970,378,1.2194
14.2012,455,1.4677
14.2055,507,1.6355
14.2098,463,1.4935
14.2141,379,1.2226
14.2184,402,1.2968
14.2227,508,1.6387
14.2270,511,1.6484
14.2314,423,1.3645
14.2357,376,1.2129
14.2400,434,1.4000
14.2443,517,1.6677
14.2487,491,1.5839
14.2530,393,1.2677
14.2573,397,1.2806
14.2617,495,1.5968
14.2660,523,1.6871
14.2703,463,1.4935
14.2746,396,1.2774
14.2790,435,1.4032
14.2833,537,1.7323
14.2876,524,1.6903
14.2920,425,1.3710
14.2963,408,1.3161
14.3007,493,1.5903
14.3050,555,1.7903
14.3093,515,1.6613
14.3136,425,1.3710
14.3180,442,1.4258
14.3223,549,1.7710
14.3266,563,1.8161
14.3309,491,1.5839
14.3352,442,1.4258
14.3395,499,1.6097
14.3438,594,1.9161
14.3481,574,1.8516
14.3524,474,1.5290
14.3567,470,1.5161
14.3610,560,1.8065
14.3653,621,2.0032
14.3696,583,1.8806
14.3739,498,1.6065
14.3782,520,1.6774
14.3825,628,2.0258
14.3868,640,2.0645
14.3910,569,1.8355
14.3953,522,1.6839
14.3996,574,1.8516
14.4039,663,2.1387
14.4082,643,2.0742
14.4125,546,1.7613
14.4168,536,1.7290
14.4211,615,1.9839
14.4254,658,2.1226
14.4297,605,1.9516
14.4340,505,1.6290
14.4383,511,1.6484
14.4427,601,1.9387
14.4470,596,1.9226
14.4513,501,1.6161
14.4557,450,1.4516
14.4600,497,1.6032
14.4643,559,1.8032
14.4687,527,1.7000
14.4730,420,1.3548
14.4773,408,1.3161
14.4817,496,1.6000
14.4860,517,1.6677
14.4903,459,1.4806
14.4946,392,1.2645
14.4990,427,1.3774
14.5033,521,1.6806
14.5076,510,1.6452
14.5120,414,1.3355
14.5163,399,1.2871
14.5207,479,1.5452
14.5252,531,1.7129
14.5295,487,1.5710
14.5338,398,1.2839
14.5381,425,1.3710
14.5424,535,1.7258
14.5467,539,1.7387
14.5510,462,1.4903
14.5553,412,1.3290
14.5596,465,1.5000
14.5640,550,1.7742
14.5684,526,1.6968
14.5727,425,1.3710
14.5770,427,1.3774
14.5813,521,1.6806
14.5856,553,1.7839
14.5899,495,1.5968
14.5942,416,1.3419
14.5985,445,1.4355
14.6028,544,1.7548
14.6071,544,1.7548
14.6114,455,1.4677
14.6157,410,1.3226
14.6200,468,1.5097
14.6242,547,1.7645
14.6286,518,1.6710
14.6330,423,1.3645
14.6374,423,1.3645
14.6418,516,1.6645
14.6461,537,1.7323
14.6504,474,1.5290
14.6547,411,1.3258
14.6591,448,1.4452
14.6634,534,1.7226
14.6678,519,1.6742
14.6721,423,1.3645
14.6767,414,1.3355
14.6810,503,1.6226
14.6853,546,1.7613
14.6896,495,1.5968
14.6939,410,1.3226
14.6983,431,1.3903
14.7027,531,1.7129
14.7070,534,1.7226
14.7113,454,1.4645
14.7155,418,1.3484
14.7198,473,1.5258
14.7241,543,1.7516
14.7284,521,1.6806
14.7327,435,1.4032
14.7370,432,1.3935
14.7412,509,1.6419
14.7455,535,1.7258
14.7498,489,1.5774
14.7540,422,1.3613
14.7583,446,1.4387
14.7625,530,1.7097
14.7668,526,1.6968
14.7711,460,1.4839
14.7757,431,1.3903
14.7800,483,1.5581
14.7843,543,1.7516
14.7886,521,1.6806
14.7928,443,1.4290
14.7971,444,1.4323
14.8013,519,1.6742
14.8056,536,1.7290
14.8099,486,1.5677
14.8141,425,1.3710
14.8184,449,1.4484
14.8227,533,1.7194
14.8269,545,1.7581
14.8312,484,1.5613
14.8355,456,1.4710
14.8398,501,1.6161
14.8441,557,1.7968
14.8484,539,1.7387
14.8527,470,1.5161
14.8575,482,1.5548
14.8619,555,1.7903
14.8679,548,1.7677
14.8723,465,1.5000
14.8767,449,1.4484
14.8810,507,1.6355
14.8853,539,1.7387
14.8896,504,1.6258
14.8938,433,1.3968
14.8981,447,1.4419
14.9025,528,1.7032
14.9068,538,1.7355
14.9110,477,1.5387
14.9153,442,1.4258
14.9196,478,1.5419
14.9239,533,1.7194
14.9284,504,1.6258
14.9326,424,1.3677
14.9369,427,1.3774
14.9412,521,1.6806
14.9455,611,1.9710
14.9497,660,2.1290
14.9540,721,2.3258
14.9583,891,2.8742
14.9625,1002,3.2323
14.9668,1002,3.2323
14.9711,1002,3.2323
14.9753,999,3.2226
14.9796,972,3.1355
14.9839,849,2.7387
14.9881,668,2.1548
14.9924,481,1.5516
14.9969,417,1.3452
15.0012,471,1.5194
15.0055,491,1.5839
15.0102,441,1.4226
15.0146,399,1.2871
15.0266,495,1.5968
15.0332,399,1.2871
15.0376,412,1.3290
15.0419,496,1.6000
15.0462,506,1.6323
15.0504,452,1.4581
15.0547,406,1.3097
15.0589,435,1.4032
15.0631,510,1.6452
15.0674,503,1.6226
15.0716,433,1.3968
15.0758,419,1.3516
15.0801,476,1.5355
15.0843,527,1.7000
15.0886,504,1.6258
15.0928,435,1.4032
15.0970,439,1.4161
15.1013,512,1.6516
15.1055,536,1.7290
15.1097,495,1.5968
15.1140,433,1.3968
15.1182,456,1.4710
15.1224,540,1.7419
15.1267,541,1.7452
15.1309,485,1.5645
15.1352,463,1.4935
15.1395,512,1.6516
15.1438,576,1.8581
15.1480,567,1.8290
15.1523,491,1.5839
15.1566,489,1.5774
15.1608,556,1.7935
15.1651,597,1.9258
15.1694,566,1.8258
15.1736,504,1.6258
15.1779,520,1.6774
15.1822,605,1.9516
15.1864,619,1.9968
15.1907,563,1.8161
15.1950,528,1.7032
15.1993,563,1.8161
15.2035,629,2.0290
15.2078,622,2.0065
15.2120,552,1.7806
15.2163,546,1.7613
15.2206,605,1.9516
15.2248,640,2.0645
15.2292,605,1.9516
15.2335,531,1.7129
15.2378,533,1.7194
15.2421,600,1.9355
15.2464,593,1.9129
15.2507,520,1.6774
15.2550,469,1.5129
15.2593,496,1.6000
15.2636,540,1.7419
15.2679,511,1.6484
15.2722,427,1.3774
15.2765,421,1.3581
15.2808,480,1.5484
15.2851,507,1.6355
15.2894,464,1.4968
15.2937,396,1.2774
15.2980,410,1.3226
15.3023,494,1.5935
15.3066,501,1.6161
15.3109,438,1.4129
15.3152,404,1.3032
15.3195,447,1.4419
15.3238,512,1.6516
15.3281,500,1.6129
15.3324,428,1.3806
15.3367,417,1.3452
15.3410,484,1.5613
15.3453,512,1.6516
15.3496,477,1.5387
15.3539,421,1.3581
15.3582,444,1.4323
15.3625,522,1.6839
15.3668,519,1.6742
15.3711,451,1.4548
15.3754,426,1.3742
15.3797,480,1.5484
15.3840,539,1.7387
15.3883,517,1.6677
15.3926,440,1.4194
15.3969,439,1.4161
15.4012,510,1.6452
15.4055,533,1.7194
15.4098,487,1.5710
15.4141,426,1.3742
15.4184,451,1.4548
15.4227,525,1.6935
15.4270,517,1.6677
15.4313,446,1.4387
15.4356,423,1.3645
15.4399,471,1.5194
15.4442,529,1.7065
15.4485,505,1.6290
15.4528,429,1.3839
15.4571,431,1.3903
15.4615,508,1.6387
15.4661,526,1.6968
15.4704,465,1.5000
15.4748,427,1.3774
15.4791,459,1.4806
15.4834,527,1.7000
15.4877,513,1.6548
15.4919,435,1.4032
15.4963,429,1.3839
15.5005,486,1.5677
15.5048,518,1.6710
15.5091,486,1.5677
15.5134,427,1.3774
15.5177,445,1.4355
15.5220,528,1.7032
15.5263,529,1.7065
15.5306,463,1.4935
15.5350,425,1.3710
15.5393,468,1.5097
15.5436,529,1.7065
15.5479,514,1.6581
15.5522,441,1.4226
15.5565,436,1.4065
15.5608,507,1.6355
15.5650,540,1.7419
15.5693,506,1.6323
15.5735,445,1.4355
15.5778,460,1.4839
15.5821,534,1.7226
15.5863,534,1.7226
15.5906,470,1.5161
15.5949,432,1.3935
15.5991,474,1.5290
15.6034,544,1.7548
15.6077,532,1.7161
15.6119,458,1.4774
15.6162,453,1.4613
15.6205,514,1.6581
15.6247,548,1.7677
15.6290,516,1.6645
15.6332,456,1.4710
15.6375,475,1.5323
15.6418,563,1.8161
15.6461,575,1.8548
15.6504,516,1.6645
15.6547,468,1.5097
15.6590,503,1.6226
15.6633,579,1.8677
15.6676,572,1.8452
15.6719,493,1.5903
15.6761,478,1.5419
15.6804,529,1.7065
15.6847,560,1.8065
15.6890,528,1.7032
15.6933,460,1.4839
15.6976,478,1.5419
15.7019,558,1.8000
15.7062,563,1.8161
15.7105,500,1.6129
15.7148,464,1.4968
15.7191,505,1.6290
15.7234,571,1.8419
15.7276,554,1.7871
15.7319,472,1.5226
15.7364,462,1.4903
15.7408,525,1.6935
15.7451,569,1.8355
15.7494,584,1.8839
15.7537,606,1.9548
15.7582,741,2.3903
15.7661,997,3.2161
15.7706,1002,3.2323
15.7749,1001,3.2290
15.7792,1001,3.2290
15.7834,1000,3.2258
15.7877,947,3.0548
15.7921,719,2.3194
15.7964,578,1.8645
15.8007,553,1.7839
15.8050,543,1.7516
15.8093,497,1.6032
15.8135,437,1.4097
15.8179,458,1.4774
15.8221,547,1.7645
15.8264,555,1.7903
15.8307,483,1.5581
15.8350,447,1.4419
15.8393,492,1.5871
15.8436,554,1.7871
15.8479,545,1.7581
15.8522,471,1.5194
15.8564,471,1.5194
15.8607,547,1.7645
15.8650,580,1.8710
15.8692,545,1.7581
15.8735,481,1.5516
15.8777,497,1.6032
15.8820,577,1.8613
15.8862,588,1.8968
15.8905,534,1.7226
15.8948,498,1.6065
15.8990,533,1.7194
15.9033,600,1.9355
15.9075,598,1.9290
15.9118,529,1.7065
15.9160,521,1.6806
15.9203,583,1.8806
15.9245,625,2.0161
15.9288,597,1.9258
15.9330,533,1.7194
15.9374,551,1.7774
15.9417,633,2.0419
15.9460,648,2.0903
15.9503,595,1.9194
15.9546,559,1.8032
15.9589,603,1.9452
15.9632,677,2.1839
15.9676,667,2.1516
15.9719,597,1.9258
15.9762,603,1.9452
15.9804,677,2.1839
15.9847,710,2.2903
15.9890,676,2.1806
15.9933,612,1.9742
15.9976,635,2.0484
16.0019,724,2.3355
16.0062,735,2.3710
16.0104,671,2.1645
16.0147,633,2.0419
16.0190,677,2.1839
16.0233,746,2.4065
16.0276,729,2.3516
16.0319,645,2.0806
16.0362,629,2.0290
16.0405,689,2.2226
16.0448,716,2.3097
16.0491,671,2.1645
16.0534,595,1.9194
16.0576,600,1.9355
16.0619,665,2.1452
16.0662,658,2.1226
16.0704,589,1.9000
16.0747,543,1.7516
16.0789,567,1.8290
16.0832,625,2.0161
16.0874,609,1.9645
16.0917,529,1.7065
16.0959,516,1.6645
16.1002,572,1.8452
16.1045,612,1.9742
16.1087,581,1.8742
16.1130,516,1.6645
16.1172,528,1.7032
16.1215,606,1.9548
16.1258,613,1.9774
16.1300,554,1.7871
16.1343,513,1.6548
16.1385,549,1.7710
16.1428,627,2.0226
16.1472,616,1.9871
16.1515,537,1.7323
16.1558,525,1.6935
16.1601,585,1.8871
16.1644,634,2.0452
16.1687,614,1.9806
16.1729,545,1.7581
16.1772,545,1.7581
16.1816,624,2.0129
16.1859,636,2.0516
16.1902,580,1.8710
16.1945,537,1.7323
16.1988,571,1.8419
16.2031,631,2.0355
16.2074,613,1.9774
16.2117,535,1.7258
16.2161,525,1.6935
16.2204,590,1.9032
16.2247,623,2.0097
16.2290,587,1.8935
16.2333,521,1.6806
16.2376,538,1.7355
16.2420,615,1.9839
16.2463,617,1.9903
16.2506,550,1.7742
16.2549,512,1.6516
16.2592,558,1.8000
16.2635,628,2.0258
16.2678,608,1.9613
16.2721,525,1.6935
16.2764,515,1.6613
16.2807,586,1.8903
16.2850,614,1.9806
16.2893,570,1.8387
16.2936,505,1.6290
16.2979,521,1.6806
16.3022,600,1.9355
16.3066,599,1.9323
16.3109,526,1.6968
16.3152,501,1.6161
16.3195,552,1.7806
16.3238,610,1.9677
16.3281,586,1.8903
16.3324,504,1.6258
16.3367,503,1.6226
16.3410,579,1.8677
16.3453,600,1.9355
16.3497,551,1.7774
16.3540,498,1.6065
16.3584,531,1.7129
16.3667,583,1.8806
16.3711,515,1.6613
16.3754,495,1.5968
16.3797,542,1.7484
16.3840,592,1.9097
16.3883,568,1.8323
16.3925,489,1.5774
16.3968,489,1.5774
16.4011,568,1.8323
16.4054,588,1.8968
16.4097,537,1.7323
16.4140,485,1.5645
16.4183,510,1.6452
16.4227,585,1.8871
16.4270,578,1.8645
16.4313,498,1.6065
16.4357,485,1.5645
16.4400,552,1.7806
16.4443,601,1.9387
16.4487,568,1.8323
16.4530,495,1.5968
16.4573,505,1.6290
16.4616,586,1.8903
16.4658,590,1.9032
16.4701,535,1.7258
16.4744,496,1.6000
16.4787,525,1.6935
16.4830,581,1.8742
16.4873,560,1.8065
16.4916,473,1.5258
16.4959,460,1.4839
16.5002,524,1.6903
16.5045,559,1.8032
16.5088,520,1.6774
16.5131,453,1.4613
16.5174,469,1.5129
16.5217,552,1.7806
16.5260,551,1.7774
16.5302,485,1.5645
16.5345,444,1.4323
16.5388,476,1.5355
16.5431,533,1.7194
16.5474,509,1.6419
16.5518,433,1.3968
16.5566,473,1.5258
16.5610,626,2.0194
16.5653,746,2.4065
16.5697,830,2.6774
16.5740,919,2.9645
16.5784,1001,3.2290
16.5827,1003,3.2355
16.5870,1001,3.2290
16.5913,988,3.1871
16.5957,845,2.7258
16.6000,716,2.3097
16.6043,616,1.9871
16.6087,494,1.5935
16.6130,381,1.2290
16.6173,385,1.2419
16.6216,472,1.5226
16.6260,477,1.5387
16.6303,412,1.3290
16.6346,373,1.2032
16.6390,412,1.3290
16.6433,481,1.5516
16.6476,462,1.4903
16.6520,386,1.2452
16.6563,381,1.2290
16.6606,449,1.4484
16.6650,470,1.5161
16.6694,421,1.3581
16.6737,363,1.1710
16.6781,391,1.2613
16.6824,463,1.4935
16.6867,458,1.4774
16.6910,390,1.2581
16.6953,377,1.2161
16.6996,436,1.4065
16.7039,489,1.5774
16.7082,455,1.4677
16.7125,380,1.2258
16.7168,389,1.2548
16.7211,475,1.5323
16.7254,495,1.5968
16.7297,444,1.4323
16.7340,388,1.2516
16.7383,416,1.3419
16.7426,490,1.5806
16.7469,486,1.5677
16.7512,417,1.3452
16.7555,408,1.3161
16.7598,469,1.5129
16.7641,522,1.6839
16.7684,499,1.6097
16.7727,431,1.3903
16.7770,443,1.4290
16.7813,524,1.6903
16.7856,537,1.7323
16.7899,486,1.5677
16.7942,450,1.4516
16.7985,489,1.5774
16.8027,561,1.8097
16.8070,555,1.7903
16.8113,485,1.5645
16.8156,477,1.5387
16.8199,540,1.7419
16.8242,579,1.8677
16.8285,544,1.7548
16.8328,467,1.5065
16.8371,476,1.5355
16.8414,556,1.7935
16.8457,561,1.8097
16.8500,500,1.6129
16.8544,445,1.4355
16.8587,465,1.5000
16.8630,519,1.6742
16.8674,489,1.5774
16.8717,398,1.2839
16.8760,381,1.2290
16.8803,439,1.4161
16.8847,456,1.4710
16.8890,405,1.3065
16.8933,336,1.0839
16.8977,347,1.1194
16.9020,423,1.3645
16.9063,420,1.3548
16.9107,347,1.1194
16.9150,328,1.0581
16.9194,378,1.2194
16.9237,431,1.3903
16.9280,404,1.3032
16.9323,329,1.0613
16.9367,338,1.0903
16.9410,419,1.3516
16.9454,435,1.4032
16.9497,384,1.2387
16.9540,335,1.0806
16.9583,366,1.1806
16.9626,440,1.4194
16.9669,430,1.3871
16.9712,361,1.1645
16.9755,355,1.1452
16.9798,419,1.3516
16.9841,459,1.4806
16.9884,421,1.3581
16.9926,349,1.1258
16.9969,368,1.1871
17.0012,453,1.4613
17.0055,460,1.4839
17.0098,394,1.2710
17.0141,342,1.1032
17.0184,382,1.2323
17.0227,462,1.4903
17.0270,450,1.4516
17.0313,368,1.1871
17.0356,357,1.1516
17.0398,419,1.3516
17.0441,460,1.4839
17.0484,420,1.3548
17.0527,343,1.1065
17.0571,362,1.1677
17.0614,458,1.4774
17.0658,463,1.4935
17.0701,390,1.2581
17.0744,348,1.1226
17.0787,392,1.2645
17.0831,463,1.4935
17.0874,444,1.4323
17.0917,358,1.1548
17.0961,360,1.1613
17.1004,438,1.4129
17.1047,464,1.4968
17.1091,415,1.3387
17.1134,349,1.1258
17.1177,381,1.2290
17.1221,469,1.5129
17.1264,461,1.4871
17.1308,383,1.2355
17.1351,362,1.1677
17.1394,419,1.3516
17.1437,479,1.5452
17.1481,452,1.4581
17.1524,372,1.2000
17.1568,376,1.2129
17.1610,461,1.4871
17.1653,477,1.5387
17.1696,416,1.3419
17.1739,363,1.1710
17.1782,398,1.2839
17.1825,485,1.5645
17.1868,478,1.5419
17.1911,391,1.2613
17.1954,380,1.2258
17.1997,450,1.4516
17.2040,498,1.6065
17.2083,459,1.4806
17.2126,374,1.2065
17.2168,388,1.2516
17.2211,487,1.5710
17.2254,502,1.6194
17.2297,439,1.4161
17.2340,383,1.2355
17.2383,422,1.3613
17.2426,507,1.6355
17.2469,500,1.6129
17.2512,423,1.3645
17.2555,411,1.3258
17.2599,480,1.5484
17.2643,525,1.6935
17.2687,483,1.5581
17.2732,415,1.3387
17.2775,453,1.4613
17.2819,546,1.7613
17.2862,539,1.7387
17.2906,447,1.4419
17.2949,411,1.3258
17.2992,460,1.4839
17.3036,517,1.6677
17.3079,486,1.5677
17.3122,403,1.3000
17.3166,418,1.3484
17.3209,514,1.6581
17.3253,529,1.7065
17.3296,465,1.5000
17.3339,417,1.3452
17.3383,456,1.4710
17.3426,526,1.6968
17.3469,497,1.6032
17.3512,400,1.2903
17.3556,384,1.2387
17.3599,466,1.5032
17.3642,546,1.7613
17.3685,580,1.8710
17.3728,597,1.9258
17.3771,747,2.4097
17.3814,990,3.1935
17.3856,1000,3.2258
17.3899,1000,3.2258
17.3942,1002,3.2323
17.3985,1000,3.2258
17.4028,972,3.1355
17.4071,797,2.5710
17.4114,559,1.8032
17.4157,445,1.4355
17.4200,465,1.5000
17.4243,495,1.5968
17.4286,460,1.4839
17.4329,389,1.2548
17.4372,409,1.3194
17.4415,504,1.6258
17.4458,502,1.6194
17.4501,432,1.3935
17.4543,399,1.2871
17.4587,452,1.4581
17.4630,521,1.6806
17.4674,497,1.6032
17.4717,410,1.3226
17.4760,417,1.3452
17.4804,501,1.6161
17.4847,529,1.7065
17.4890,483,1.5581
17.4933,421,1.3581
17.4977,447,1.4419
17.5020,535,1.7258
17.5063,535,1.7258
17.5107,453,1.4613
17.5150,430,1.3871
17.5194,495,1.5968
17.5237,559,1.8032
17.5280,534,1.7226
17.5324,450,1.4516
17.5367,461,1.4871
17.5411,558,1.8000
17.5454,570,1.8387
17.5497,513,1.6548
17.5540,473,1.5258
17.5584,518,1.6710
17.5629,594,1.9161
17.5673,580,1.8710
17.5717,500,1.6129
17.5760,504,1.6258
17.5804,594,1.9161
17.5847,619,1.9968
17.5890,576,1.8581
17.5933,524,1.6903
17.5976,561,1.8097
17.6019,650,2.0968
17.6062,648,2.0903
17.6106,575,1.8548
17.6149,559,1.8032
17.6192,620,2.0000
17.6235,681,2.1968
17.6278,655,2.1129
17.6321,571,1.8419
17.6364,576,1.8581
17.6407,662,2.1355
17.6450,679,2.1903
17.6493,617,1.9903
17.6536,557,1.7968
17.6579,584,1.8839
17.6623,660,2.1290
17.6666,645,2.0806
17.6709,556,1.7935
17.6751,527,1.7000
17.6794,565,1.8226
17.6838,594,1.9161
17.6881,547,1.7645
17.6924,458,1.4774
17.6967,467,1.5065
17.7009,554,1.7871
17.7053,555,1.7903
17.7096,483,1.5581
17.7139,429,1.3839
17.7185,472,1.5226
17.7228,545,1.7581
17.7271,532,1.7161
17.7314,445,1.4355
17.7357,440,1.4194
17.7400,519,1.6742
17.7443,558,1.8000
17.7486,518,1.6710
17.7529,451,1.4548
17.7574,476,1.5355
17.7617,568,1.8323
17.7661,568,1.8323
17.7704,484,1.5613
17.7746,452,1.4581
17.7789,506,1.6323
17.7832,569,1.8355
17.7876,551,1.7774
17.7919,468,1.5097
17.7961,467,1.5065
17.8005,548,1.7677
17.8048,567,1.8290
17.8091,510,1.6452
17.8135,447,1.4419
17.8178,482,1.5548
17.8221,568,1.8323
17.8264,561,1.8097
17.8307,477,1.5387
17.8350,461,1.4871
17.8393,517,1.6677
17.8436,567,1.8290
17.8479,535,1.7258
17.8522,457,1.4742
17.8565,467,1.5065
17.8609,552,1.7806
17.8652,558,1.8000
17.8695,500,1.6129
17.8738,455,1.4677
17.8781,491,1.5839
17.8825,561,1.8097
17.8869,544,1.7548
17.8912,461,1.4871
17.8955,455,1.4677
17.8997,518,1.6710
17.9040,554,1.7871
17.9087,510,1.6452
17.9130,445,1.4355
17.9173,471,1.5194
17.9216,554,1.7871
17.9259,552,1.7806
17.9302,477,1.5387
17.9345,454,1.4645
17.9388,508,1.6387
17.9431,563,1.8161
17.9480,527,1.7000
17.9523,451,1.4548
17.9566,462,1.4903
17.9609,548,1.7677
17.9652,559,1.8032
17.9695,508,1.6387
17.9738,458,1.4774
17.9781,488,1.5742
17.9824,558,1.8000
17.9867,550,1.7742
17.9910,472,1.5226
17.9953,463,1.4935
17.9996,527,1.7000
18.0039,568,1.8323
18.0082,534,1.7226
18.0125,464,1.4968
18.0168,476,1.5355
18.0211,557,1.7968
18.0254,562,1.8129
18.0297,501,1.6161
18.0340,462,1.4903
18.0383,500,1.6129
18.0426,566,1.8258
18.0469,553,1.7839
18.0512,477,1.5387
18.0555,481,1.5516
18.0598,555,1.7903
18.0641,590,1.9032
18.0685,549,1.7710
18.0728,477,1.5387
18.0771,494,1.5935
18.0814,588,1.8968
18.0857,602,1.9419
18.0900,532,1.7161
18.0943,484,1.5613
18.0986,513,1.6548
18.1029,566,1.8258
18.1072,543,1.7516
18.1115,467,1.5065
18.1158,473,1.5258
18.1201,545,1.7581
18.1244,568,1.8323
18.1287,524,1.6903
18.1330,463,1.4935
18.1373,486,1.5677
18.1416,571,1.8419
18.1459,566,1.8258
18.1502,478,1.5419
18.1545,442,1.4258
18.1589,494,1.5935
18.1633,553,1.7839
18.1684,544,1.7548
18.1728,542,1.7484
18.1771,651,2.1000
18.1814,862,2.7806
18.1857,992,3.2000
18.1899,997,3.2161
18.1943,999,3.2226
18.1986,1000,3.2258
18.2028,1000,3.2258
18.2072,954,3.0774
18.2117,731,2.3581
18.2161,596,1.9226
18.2204,577,1.8613
18.2247,530,1.7097
18.2290,455,1.4677
18.2339,399,1.2871
18.2382,447,1.4419
18.2425,525,1.6935
18.2468,513,1.6548
18.2511,432,1.3935
18.2554,422,1.3613
18.2598,489,1.5774
18.2641,524,1.6903
18.2684,491,1.5839
18.2727,425,1.3710
18.2770,444,1.4323
18.2813,526,1.6968
18.2856,529,1.7065
18.2899,459,1.4806
18.2942,431,1.3903
18.2985,482,1.5548
18.3028,544,1.7548
18.3071,527,1.7000
18.3114,445,1.4355
18.3161,448,1.4452
18.3204,535,1.7258
18.3247,559,1.8032
18.3294,503,1.6226
18.3337,456,1.4710
18.3380,497,1.6032
18.3423,570,1.8387
18.3466,562,1.8129
18.3509,484,1.5613
18.3552,479,1.5452
18.3595,547,1.7645
18.3638,589,1.9000
18.3682,556,1.7935
18.3727,492,1.5871
18.3771,515,1.6613
18.3813,602,1.9419
18.3856,612,1.9742
18.3899,545,1.7581
18.3942,512,1.6516
18.3986,567,1.8290
18.4029,641,2.0677
18.4071,625,2.0161
18.4114,544,1.7548
18.4157,552,1.7806
18.4201,645,2.0806
18.4244,674,2.1742
18.4287,629,2.0290
18.4330,561,1.8097
18.4373,583,1.8806
18.4416,667,2.1516
18.4459,671,2.1645
18.4502,593,1.9129
18.4545,555,1.7903
18.4589,609,1.9645
18.4634,660,2.1290
18.4678,615,1.9839
18.4722,521,1.6806
18.4766,524,1.6903
18.4810,604,1.9484
18.4852,598,1.9290
18.4895,513,1.6548
18.4938,454,1.4645
18.4981,494,1.5935
18.5024,570,1.8387
18.5067,549,1.7710
18.5110,452,1.4581
18.5158,435,1.4032
18.5201,524,1.6903
18.5244,553,1.7839
18.5287,497,1.6032
18.5330,428,1.3806
18.5373,460,1.4839
18.5417,557,1.7968
18.5460,555,1.7903
18.5502,468,1.5097
18.5545,442,1.4258
18.5588,512,1.6516
18.5632,582,1.8774
18.5679,544,1.7548
18.5722,455,1.4677
18.5766,467,1.5065
18.5809,565,1.8226
18.5852,576,1.8581
18.5894,506,1.6323
18.5937,454,1.4645
18.5979,505,1.6290
18.6022,597,1.9258
18.6065,587,1.8935
18.6108,485,1.5645
18.6150,464,1.4968
18.6193,537,1.7323
18.6235,594,1.9161
18.6278,558,1.8000
18.6321,467,1.5065
18.6363,477,1.5387
18.6407,580,1.8710
18.6449,597,1.9258
18.6492,527,1.7000
18.6534,462,1.4903
18.6577,506,1.6323
18.6620,598,1.9290
18.6663,586,1.8903
18.6706,485,1.5645
18.6748,468,1.5097
18.6792,544,1.7548
18.6834,604,1.9484
18.6877,561,1.8097
18.6920,460,1.4839
18.6963,472,1.5226
18.7007,581,1.8742
18.7050,599,1.9323
18.7092,527,1.7000
18.7136,460,1.4839
18.7179,501,1.6161
18.7221,597,1.9258
18.7264,591,1.9065
18.7307,492,1.5871
18.7350,474,1.5290
18.7393,555,1.7903
18.7436,612,1.9742
18.7480,567,1.8290
18.7523,476,1.5355
18.7566,491,1.5839
18.7609,595,1.9194
18.7651,605,1.9516
18.7694,531,1.7129
18.7737,478,1.5419
18.7780,526,1.6968
18.7823,611,1.9710
18.7866,590,1.9032
18.7909,489,1.5774
18.7952,482,1.5548
18.7995,563,1.8161
18.8038,618,1.9935
18.8081,581,1.8742
18.8124,493,1.5903
18.8167,511,1.6484
18.8210,609,1.9645
18.8253,612,1.9742
18.8296,533,1.7194
18.8339,489,1.5774
18.8381,541,1.7452
18.8425,625,2.0161
18.8468,606,1.9548
18.8511,512,1.6516
18.8554,517,1.6677
18.8597,612,1.9742
18.8640,654,2.1097
18.8683,593,1.9129
18.8726,510,1.6452
18.8769,539,1.7387
18.8812,654,2.1097
18.8855,660,2.1290
18.8898,570,1.8387
18.8941,517,1.6677
18.8983,559,1.8032
18.9026,629,2.0290
18.9070,608,1.9613
18.9113,508,1.6387
18.9156,503,1.6226
18.9199,593,1.9129
18.9241,635,2.0484
18.9285,581,1.8742
18.9327,498,1.6065
18.9370,526,1.6968
18.9414,625,2.0161
18.9457,615,1.9839
18.9499,515,1.6613
18.9542,470,1.5161
18.9585,529,1.7065
18.9628,625,2.0161
18.9671,653,2.1065
18.9715,635,2.0484
18.9757,737,2.3774
18.9801,967,3.1194
18.9843,1002,3.2323
18.9887,1002,3.2323
18.9929,1002,3.2323
18.9972,1004,3.2387
19.0015,1003,3.2355
19.0058,1001,3.2290
19.0101,874,2.8194
19.0144,653,2.1065
19.0187,576,1.8581
19.0230,595,1.9194
19.0273,553,1.7839
19.0316,455,1.4677
19.0359,462,1.4903
19.0402,561,1.8097
19.0445,587,1.8935
19.0488,523,1.6871
19.0531,448,1.4452
19.0574,488,1.5742
19.0617,590,1.9032
19.0701,492,1.5871
19.0744,455,1.4677
19.0787,520,1.6774
19.0829,594,1.9161
19.0872,565,1.8226
19.0915,461,1.4871
19.0957,463,1.4935
19.1000,566,1.8258
19.1043,599,1.9323
19.1086,547,1.7645
19.1129,467,1.5065
19.1171,494,1.5935
19.1214,603,1.9452
19.1256,609,1.9645
19.1299,517,1.6677
19.1341,471,1.5194
19.1384,531,1.7129
19.1427,618,1.9935
19.1470,597,1.9258
19.1512,497,1.6032
19.1555,498,1.6065
19.1597,592,1.9097
19.1640,633,2.0419
19.1682,589,1.9000
19.1726,514,1.6581
19.1769,545,1.7581
19.1812,653,2.1065
19.1855,655,2.1129
19.1898,573,1.8484
19.1941,532,1.7161
19.1984,598,1.9290
19.2027,680,2.1935
19.2070,656,2.1161
19.2113,560,1.8065
19.2156,560,1.8065
19.2199,656,2.1161
19.2242,696,2.2452
19.2285,640,2.0645
19.2328,557,1.7968
19.2371,585,1.8871
19.2414,689,2.2226
19.2457,686,2.2129
19.2500,592,1.9097
19.2543,552,1.7806
19.2586,605,1.9516
19.2629,665,2.1452
19.2673,615,1.9839
19.2716,504,1.6258
19.2759,497,1.6032
19.2801,585,1.8871
19.2844,598,1.9290
19.2888,517,1.6677
19.2931,432,1.3935
19.2974,461,1.4871
19.3016,553,1.7839
19.3059,535,1.7258
19.3102,432,1.3935
19.3145,402,1.2968
19.3188,470,1.5161
19.3231,537,1.7323
19.3274,504,1.6258
19.3317,408,1.3161
19.3360,413,1.3323
19.3403,513,1.6548
19.3446,532,1.7161
19.3489,463,1.4935
19.3533,395,1.2742
19.3575,432,1.3935
19.3657,531,1.7129
19.3702,434,1.4000
19.3746,403,1.3000
19.3788,473,1.5258
19.3831,539,1.7387
19.3874,504,1.6258
19.3916,410,1.3226
19.3959,416,1.3419
19.4002,517,1.6677
19.4044,538,1.7355
19.4087,478,1.5419
19.4129,406,1.3097
19.4172,435,1.4032
19.4215,531,1.7129
19.4258,524,1.6903
19.4300,432,1.3935
19.4343,398,1.2839
19.4385,456,1.4710
19.4428,524,1.6903
19.4470,498,1.6065
19.4513,400,1.2903
19.4556,400,1.2903
19.4599,484,1.5613
19.4641,511,1.6484
19.4685,448,1.4452
19.4727,370,1.1935
19.4770,399,1.2871
19.4813,504,1.6258
19.4856,502,1.6194
19.4899,410,1.3226
19.4942,378,1.2194
19.4985,443,1.4290
19.5028,514,1.6581
19.5071,474,1.5290
19.5114,368,1.1871
19.5157,373,1.2032
19.5200,468,1.5097
19.5243,493,1.5903
19.5286,433,1.3968
19.5329,360,1.1613
19.5372,389,1.2548
19.5415,485,1.5645
19.5458,482,1.5548
19.5501,388,1.2516
19.5544,361,1.1645
19.5587,430,1.3871
19.5630,500,1.6129
19.5673,460,1.4839
19.5716,356,1.1484
19.5759,365,1.1774
19.5802,469,1.5129
19.5845,490,1.5806
19.5888,423,1.3645
19.5931,355,1.1452
19.5974,392,1.2645
19.6017,488,1.5742
19.6060,475,1.5323
19.6103,378,1.2194
19.6146,361,1.1645
19.6189,433,1.3968
19.6232,492,1.5871
19.6275,451,1.4548
19.6318,355,1.1452
19.6362,370,1.1935
19.6406,480,1.5484
19.6449,503,1.6226
19.6492,431,1.3903
19.6534,372,1.2000
19.6577,418,1.3484
19.6620,512,1.6516
19.6663,501,1.6161
19.6706,404,1.3032
19.6749,390,1.2581
19.6792,467,1.5065
19.6835,508,1.6387
19.6878,449,1.4484
19.6921,349,1.1258
19.6964,365,1.1774
19.7007,476,1.5355
19.7051,482,1.5548
19.7094,401,1.2935
19.7137,352,1.1355
19.7180,407,1.3129
19.7223,492,1.5871
19.7266,462,1.4903
19.7310,355,1.1452
19.7352,353,1.1387
19.7395,442,1.4258
19.7439,475,1.5323
19.7481,413,1.3323
19.7524,328,1.0581
19.7567,381,1.2290
19.7610,558,1.8000
19.7653,654,2.1097
19.7696,696,2.2452
19.7740,802,2.5871
19.7783,986,3.1806
19.7826,1002,3.2323
19.7868,1000,3.2258
19.7911,953,3.0742
19.7953,780,2.5161
19.7996,694,2.2387
19.8039,599,1.9323
19.8081,449,1.4484
19.8124,307,0.9903
19.8167,315,1.0161
19.8209,433,1.3968
19.8252,448,1.4452
19.8294,366,1.1806
19.8337,307,0.9903
19.8380,359,1.1581
19.8423,452,1.4581
19.8466,428,1.3806
19.8508,315,1.0161
19.8551,306,0.9871
19.8594,402,1.2968
19.8636,456,1.4710
19.8679,412,1.3290
19.8722,325,1.0484
19.8764,345,1.1129
19.8808,458,1.4774
19.8850,464,1.4968
19.8894,384,1.2387
19.8937,332,1.0710
19.8980,385,1.2419
19.9022,478,1.5419
19.9065,455,1.4677
19.9108,348,1.1226
19.9151,343,1.1065
19.9194,436,1.4065
19.9237,487,1.5710
19.9280,441,1.4226
19.9323,357,1.1516
19.9366,384,1.2387
19.9410,498,1.6065
19.9453,503,1.6226
19.9496,418,1.3484
19.9539,386,1.2452
19.9582,450,1.4516
19.9625,533,1.7194
19.9669,511,1.6484
19.9713,408,1.3161
19.9758,415,1.3387
19.9801,524,1.6903
19.9844,555,1.7903
19.9886,501,1.6161
19.9929,440,1.4194
19.9972,485,1.5645
20.0015,591,1.9065
20.0057,585,1.8871
20.0100,494,1.5935
20.0148,475,1.5323
20.0192,564,1.8194
20.0240,616,1.9871
20.0285,552,1.7806
20.0330,471,1.5194
20.0375,509,1.6419
20.0420,607,1.9581
20.0465,585,1.8871
20.0508,469,1.5129
20.0551,448,1.4452
20.0594,524,1.6903
20.0638,551,1.7774
20.0680,491,1.5839
20.0723,400,1.2903
20.0767,409,1.3194
20.0809,507,1.6355
20.0852,503,1.6226
20.0895,411,1.3258
20.0938,353,1.1387
20.0980,397,1.2806
20.1029,487,1.5710
20.1072,455,1.4677
20.1115,354,1.1419
20.1157,357,1.1516
20.1200,458,1.4774
20.1243,486,1.5677
20.1285,419,1.3516
20.1328,346,1.1161
20.1371,385,1.2419
20.1414,492,1.5871
20.1456,489,1.5774
20.1499,396,1.2774
20.1541,369,1.1903
20.1584,433,1.3968
20.1627,511,1.6484
20.1669,484,1.5613
20.1712,392,1.2645
20.1755,399,1.2871
20.1798,491,1.5839
20.1841,520,1.6774
20.1884,462,1.4903
20.1927,381,1.2290
20.1969,405,1.3065
20.2012,510,1.6452
20.2055,514,1.6581
20.2098,428,1.3806
20.2141,394,1.2710
20.2184,455,1.4677
20.2227,530,1.7097
20.2270,495,1.5968
20.2313,394,1.2710
20.2356,398,1.2839
20.2398,495,1.5968
20.2442,523,1.6871
20.2485,459,1.4806
20.2528,386,1.2452
20.2571,422,1.3613
20.2614,517,1.6677
20.2658,503,1.6226
20.2708,392,1.2645
20.2752,397,1.2806
20.2795,489,1.5774
20.2838,523,1.6871
20.2881,467,1.5065
20.2923,385,1.2419
20.2966,409,1.3194
20.3009,514,1.6581
20.3052,516,1.6645
20.3094,435,1.4032
20.3137,388,1.2516
20.3179,437,1.4097
20.3222,524,1.6903
20.3265,506,1.6323
20.3308,404,1.3032
20.3350,396,1.2774
20.3393,482,1.5548
20.3436,531,1.7129
20.3478,488,1.5742
20.3521,404,1.3032
20.3564,423,1.3645
20.3607,524,1.6903
20.3650,527,1.7000
20.3693,448,1.4452
20.3735,404,1.3032
20.3778,457,1.4742
20.3821,546,1.7613
20.3864,530,1.7097
20.3907,424,1.3677
20.3951,412,1.3290
20.3993,500,1.6129
20.4036,546,1.7613
20.4079,500,1.6129
20.4122,413,1.3323
20.4165,434,1.4000
20.4209,541,1.7452
20.4252,547,1.7645
20.4295,474,1.5290
20.4338,439,1.4161
20.4380,502,1.6194
20.4424,581,1.8742
20.4467,546,1.7613
20.4510,444,1.4323
20.4553,445,1.4355
20.4596,544,1.7548
20.4639,586,1.8903
20.4682,532,1.7161
20.4725,447,1.4419
20.4768,465,1.5000
20.4811,557,1.7968
20.4855,547,1.7645
20.4898,449,1.4484
20.4941,416,1.3419
20.4984,486,1.5677
20.5026,564,1.8194
20.5069,535,1.7258
20.5112,435,1.4032
20.5155,443,1.4290
20.5198,541,1.7452
20.5241,563,1.8161
20.5284,495,1.5968
20.5327,410,1.3226
20.5370,437,1.4097
20.5413,540,1.7419
20.5456,560,1.8065
20.5500,520,1.6774
20.5543,575,1.8548
20.5585,755,2.4355
20.5628,977,3.1516
20.5672,999,3.2226
20.5715,1000,3.2258
20.5757,1001,3.2290
20.5800,1003,3.2355
20.5844,997,3.2161
20.5886,869,2.8032
20.5929,630,2.0323
20.5972,528,1.7032
20.6015,551,1.7774
20.6058,516,1.6645
20.6101,417,1.3452
20.6144,398,1.2839
20.6187,478,1.5419
20.6230,544,1.7548
20.6273,509,1.6419
20.6316,410,1.3226
20.6359,417,1.3452
20.6402,523,1.6871
20.6445,540,1.7419
20.6489,466,1.5032
20.6532,404,1.3032
20.6575,453,1.4613
20.6618,551,1.7774
20.6660,540,1.7419
20.6703,442,1.4258
20.6746,429,1.3839
20.6789,509,1.6419
20.6832,567,1.8290
20.6875,529,1.7065
20.6918,438,1.4129
20.6961,449,1.4484
20.7004,561,1.8097
20.7047,586,1.8903
20.7090,516,1.6645
20.7133,454,1.4645
20.7176,504,1.6258
20.7219,597,1.9258
20.7262,587,1.8935
20.7305,491,1.5839
20.7348,477,1.5387
20.7391,564,1.8194
20.7434,618,1.9935
20.7477,578,1.8645
20.7520,495,1.5968
20.7563,518,1.6710
20.7607,632,2.0387
20.7650,647,2.0871
20.7693,571,1.8419
20.7736,530,1.7097
20.7779,592,1.9097
20.7822,678,2.1871
20.7865,666,2.1484
20.7908,569,1.8355
20.7951,566,1.8258
20.7994,664,2.1419
20.8037,708,2.2839
20.8080,660,2.1290
20.8123,575,1.8548
20.8166,602,1.9419
20.8208,714,2.3032
20.8252,714,2.3032
20.8295,618,1.9935
20.8337,568,1.8323
20.8380,623,2.0097
20.8424,700,2.2581
20.8467,662,2.1355
20.8510,545,1.7581
20.8553,528,1.7032
20.8607,629,2.0290
20.8667,598,1.9290
20.8711,486,1.5677
20.8755,482,1.5548
20.8799,579,1.8677
20.8843,601,1.9387
20.8887,525,1.6935
20.8930,451,1.4548
20.8973,484,1.5613
20.9015,582,1.8774
20.9058,581,1.8742
20.9101,487,1.5710
20.9144,466,1.5032
20.9187,538,1.7355
20.9230,601,1.9387
20.9273,565,1.8226
20.9316,465,1.5000
20.9359,474,1.5290
20.9402,577,1.8613
20.9445,603,1.9452
20.9488,545,1.7581
20.9531,486,1.5677
20.9573,525,1.6935
20.9616,620,2.0000
20.9659,611,1.9710
20.9702,509,1.6419
20.9745,487,1.5710
20.9788,567,1.8290
20.9831,628,2.0258
20.9875,586,1.8903
20.9918,493,1.5903
20.9961,506,1.6323
21.0005,609,1.9645
21.0048,619,1.9968
21.0091,537,1.7323
21.0135,485,1.5645
21.0178,536,1.7290
21.0221,621,2.0032
21.0264,600,1.9355
21.0308,500,1.6129
21.0351,492,1.5871
21.0395,580,1.8710
21.0438,617,1.9903
21.0482,565,1.8226
21.0525,489,1.5774
21.0568,512,1.6516
21.0611,607,1.9581
21.0655,605,1.9516
21.0698,518,1.6710
21.0741,491,1.5839
21.0785,552,1.7806
21.0828,612,1.9742
21.0871,577,1.8613
21.0915,480,1.5484
21.0958,484,1.5613
21.1001,588,1.8968
21.1043,615,1.9839
21.1086,552,1.7806
21.1129,478,1.5419
21.1172,511,1.6484
21.1215,606,1.9548
21.1258,596,1.9226
21.1301,493,1.5903
21.1344,474,1.5290
21.1387,546,1.7613
21.1430,610,1.9677
21.1473,573,1.8484
21.1516,477,1.5387
21.1559,487,1.5710
21.1602,588,1.8968
21.1646,605,1.9516
21.1690,530,1.7097
21.1734,475,1.5323
21.1777,522,1.6839
21.1820,612,1.9742
21.1863,597,1.9258
21.1906,491,1.5839
21.1949,476,1.5355
21.1993,558,1.8000
21.2036,598,1.9290
21.2079,550,1.7742
21.2123,465,1.5000
21.2166,489,1.5774
21.2209,598,1.9290
21.2252,604,1.9484
21.2296,516,1.6645
21.2339,478,1.5419
21.2382,538,1.7355
21.2426,610,1.9677
21.2469,580,1.8710
21.2512,486,1.5677
21.2556,497,1.6032
21.2599,600,1.9355
21.2642,615,1.9839
21.2685,536,1.7290
21.2729,453,1.4613
21.2772,488,1.5742
21.2815,587,1.8935
21.2858,580,1.8710
21.2902,472,1.5226
21.2945,450,1.4516
21.2989,530,1.7097
21.3032,589,1.9000
21.3075,545,1.7581
21.3118,443,1.4290
21.3162,454,1.4645
21.3205,559,1.8032
21.3248,562,1.8129
21.3292,472,1.5226
21.3335,417,1.3452
21.3378,497,1.6032
21.3422,646,2.0839
21.3465,711,2.2935
21.3509,724,2.3355
21.3552,858,2.7677
21.3595,1000,3.2258
21.3639,1001,3.2290
21.3682,1001,3.2290
21.3725,990,3.1935
21.3769,883,2.8484
21.3812,816,2.6323
21.3855,683,2.2032
21.3898,486,1.5677
21.3941,387,1.2484
21.3985,427,1.3774
21.4028,493,1.5903
21.4071,471,1.5194
21.4113,379,1.2226
21.4156,378,1.2194
21.4199,483,1.5581
21.4242,512,1.6516
21.4285,446,1.4387
21.4328,374,1.2065
21.4371,411,1.3258
21.4415,508,1.6387
21.4458,503,1.6226
21.4501,411,1.3258
21.4544,384,1.2387
21.4587,454,1.4645
21.4630,516,1.6645
21.4673,476,1.5355
21.4716,377,1.2161
21.4758,386,1.2452
21.4801,495,1.5968
21.4844,519,1.6742
21.4887,452,1.4581
21.4930,383,1.2355
21.4974,423,1.3645
21.5017,520,1.6774
21.5061,511,1.6484
21.5104,412,1.3290
21.5147,397,1.2806
21.5190,477,1.5387
21.5234,531,1.7129
21.5277,492,1.5871
21.5320,409,1.3194
21.5364,427,1.3774
21.5408,529,1.7065
21.5451,532,1.7161
21.5495,449,1.4484
21.5538,415,1.3387
21.5581,488,1.5742
21.5624,571,1.8419
21.5668,544,1.7548
21.5711,444,1.4323
21.5754,443,1.4290
21.5798,546,1.7613
21.5841,576,1.8581
21.5884,518,1.6710
21.5927,455,1.4677
21.5971,496,1.6000
21.6014,588,1.8968
21.6057,585,1.8871
21.6100,497,1.6032
21.6143,468,1.5097
21.6185,524,1.6903
21.6228,581,1.8742
21.6271,542,1.7484
21.6314,439,1.4161
21.6357,434,1.4000
21.6400,519,1.6742
21.6443,531,1.7129
21.6486,460,1.4839
21.6529,384,1.2387
21.6572,402,1.2968
21.6615,481,1.5516
21.6658,461,1.4871
21.6701,355,1.1452
21.6744,327,1.0548
21.6787,398,1.2839
21.6830,460,1.4839
21.6873,413,1.3323
21.6916,308,0.9935
21.6959,315,1.0161
21.7002,421,1.3581
21.7045,439,1.4161
21.7089,370,1.1935
21.7132,322,1.0387
21.7175,372,1.2000
21.7219,463,1.4935
21.7262,443,1.4290
21.7305,343,1.1065
21.7348,332,1.0710
21.7392,415,1.3387
21.7435,463,1.4935
21.7479,416,1.3419
21.7522,333,1.0742
21.7566,358,1.1548
21.7609,464,1.4968
21.7654,464,1.4968
21.7698,370,1.1935
21.7742,343,1.1065
21.7786,411,1.3258
21.7829,472,1.5226
21.7873,434,1.4000
21.7916,341,1.1000
21.7959,356,1.1484
21.8002,463,1.4935
21.8045,479,1.5452
21.8088,402,1.2968
21.8131,332,1.0710
21.8174,371,1.1968
21.8217,464,1.4968
21.8260,454,1.4645
21.8303,360,1.1613
21.8346,343,1.1065
21.8389,418,1.3484
21.8432,470,1.5161
21.8475,431,1.3903
21.8518,347,1.1194
21.8561,355,1.1452
21.8604,453,1.4613
21.8647,466,1.5032
21.8690,390,1.2581
21.8769,371,1.1968
21.8812,469,1.5129
21.8855,468,1.5097
21.8898,376,1.2129
21.8942,348,1.1226
21.8985,416,1.3419
21.9029,478,1.5419
21.9072,440,1.4194
21.9116,347,1.1194
21.9159,363,1.1710
21.9202,476,1.5355
21.9245,494,1.5935
21.9289,412,1.3290
21.9332,344,1.1097
21.9375,391,1.2613
21.9418,487,1.5710
21.9462,472,1.5226
21.9505,373,1.2032
21.9549,363,1.1710
21.9592,453,1.4613
21.9635,498,1.6065
21.9678,452,1.4581
21.9722,368,1.1871
21.9765,392,1.2645
21.9809,498,1.6065
21.9852,501,1.6161
21.9895,415,1.3387
21.9939,374,1.2065
21.9982,437,1.4097
22.0025,510,1.6452
22.0068,483,1.5581
22.0111,392,1.2645
22.0154,407,1.3129
22.0197,506,1.6323
22.0240,529,1.7065
22.0282,471,1.5194
22.0325,400,1.2903
22.0368,435,1.4032
22.0411,540,1.7419
22.0454,540,1.7419
22.0497,447,1.4419
22.0540,414,1.3355
22.0583,470,1.5161
22.0626,535,1.7258
22.0671,499,1.6097
22.0714,393,1.2677
22.0758,405,1.3065
22.0801,504,1.6258
22.0844,526,1.6968
22.0887,467,1.5065
22.0930,405,1.3065
22.0973,438,1.4129
22.1016,528,1.7032
22.1059,523,1.6871
22.1102,422,1.3613
22.1146,390,1.2581
22.1189,452,1.4581
22.1232,502,1.6194
22.1276,489,1.5774
22.1319,467,1.5065
22.1362,571,1.8419
22.1406,790,2.5484
22.1449,958,3.0903
22.1492,997,3.2161
22.1535,1001,3.2290
22.1579,1001,3.2290
22.1622,1002,3.2323
22.1666,997,3.2161
22.1709,805,2.5968
22.1752,622,2.0065
22.1796,573,1.8484
22.1839,532,1.7161
22.1882,454,1.4645
22.1926,378,1.2194
22.1970,409,1.3194
22.2013,506,1.6323
22.2056,498,1.6065
22.2099,406,1.3097
22.2142,381,1.2290
22.2185,447,1.4419
22.2228,514,1.6581
22.2271,486,1.5677
22.2314,390,1.2581
22.2357,400,1.2903
22.2400,507,1.6355
22.2443,529,1.7065
22.2486,461,1.4871
22.2529,396,1.2774
22.2572,439,1.4161
22.2615,536,1.7290
22.2658,536,1.7290
22.2701,441,1.4226
22.2743,420,1.3548
22.2786,492,1.5871
22.2829,555,1.7903
22.2872,519,1.6742
22.2915,428,1.3806
22.2958,441,1.4226
22.3001,549,1.7710
22.3045,573,1.8484
22.3088,512,1.6516
22.3131,448,1.4452
22.3175,494,1.5935
22.3218,595,1.9194
22.3261,588,1.8968
22.3304,496,1.6000
22.3348,493,1.5903
22.3391,577,1.8613
22.3435,625,2.0161
22.3478,583,1.8806
22.3521,501,1.6161
22.3564,527,1.7000
22.3608,640,2.0645
22.3651,655,2.1129
22.3695,579,1.8677
22.3738,539,1.7387
22.3781,602,1.9419
22.3825,686,2.2129
22.3868,667,2.1516
22.3911,570,1.8387
22.3954,569,1.8355
22.3998,663,2.1387
22.4041,688,2.2194
22.4084,635,2.0484
22.4127,560,1.8065
22.4170,589,1.9000
22.4213,681,2.1968
22.4256,665,2.1452
22.4299,561,1.8097
22.4342,520,1.6774
22.4385,573,1.8484
22.4428,630,2.0323
22.4471,586,1.8903
22.4514,475,1.5323
22.4557,468,1.5097
22.4600,557,1.7968
22.4642,577,1.8613
22.4685,517,1.6677
22.4728,443,1.4290
22.4771,471,1.5194
22.4814,566,1.8258
22.4857,560,1.8065
22.4900,462,1.4903
22.4943,435,1.4032
22.4986,509,1.6419
22.5029,568,1.8323
22.5073,536,1.7290
22.5116,449,1.4484
22.5159,463,1.4935
22.5202,564,1.8194
22.5246,577,1.8613
22.5289,502,1.6194
22.5332,449,1.4484
22.5376,500,1.6129
22.5419,595,1.9194
22.5462,581,1.8742
22.5506,482,1.5548
22.5549,470,1.5161
22.5592,553,1.7839
22.5636,601,1.9387
22.5679,552,1.7806
22.5722,470,1.5161
22.5766,492,1.5871
22.5809,594,1.9161
22.5852,599,1.9323
22.5895,510,1.6452
22.5939,466,1.5032
22.5982,519,1.6742
22.6025,595,1.9194
22.6069,570,1.8387
22.6112,474,1.5290
22.6155,473,1.5258
22.6197,566,1.8258
22.6240,595,1.9194
22.6283,535,1.7258
22.6326,458,1.4774
22.6369,488,1.5742
22.6412,588,1.8968
22.6455,588,1.8968
22.6498,498,1.6065
22.6541,461,1.4871
22.6584,521,1.6806
22.6627,597,1.9258
22.6671,565,1.8226
22.6715,468,1.5097
22.6759,475,1.5323
22.6802,576,1.8581
22.6845,591,1.9065
22.6888,519,1.6742
22.6931,455,1.4677
22.6974,499,1.6097
22.7017,600,1.9355
22.7060,587,1.8935
22.7104,482,1.5548
22.7147,465,1.5000
22.7191,544,1.7548
22.7234,592,1.9097
22.7277,550,1.7742
22.7321,465,1.5000
22.7364,489,1.5774
22.7408,595,1.9194
22.7451,593,1.9129
22.7494,509,1.6419
22.7537,462,1.4903
22.7581,519,1.6742
22.7624,599,1.9323
22.7667,573,1.8484
22.7711,476,1.5355
22.7754,475,1.5323
22.7797,571,1.8419
22.7840,602,1.9419
22.7884,541,1.7452
22.7927,468,1.5097
22.7970,501,1.6161
22.8014,602,1.9419
22.8057,604,1.9484
22.8100,520,1.6774
22.8143,492,1.5871
22.8186,558,1.8000
22.8229,630,2.0323
22.8272,602,1.9419
22.8314,511,1.6484
22.8358,518,1.6710
22.8400,614,1.9806
22.8443,627,2.0226
22.8486,549,1.7710
22.8529,471,1.5194
22.8572,507,1.6355
22.8615,605,1.9516
22.8658,594,1.9161
22.8701,496,1.6000
22.8744,473,1.5258
22.8787,542,1.7484
22.8830,605,1.9516
22.8873,573,1.8484
22.8915,485,1.5645
22.8958,488,1.5742
22.9001,573,1.8484
22.9044,580,1.8710
22.9087,506,1.6323
22.9131,440,1.4194
22.9174,503,1.6226
22.9217,648,2.0903
22.9260,722,2.3290
22.9304,737,2.3774
22.9347,863,2.7839
22.9390,1002,3.2323
22.9434,1002,3.2323
22.9477,1004,3.2387
22.9520,1003,3.2355
22.9563,998,3.2194
22.9608,980,3.1613
22.9651,801,2.5839
22.9696,564,1.8194
22.9740,443,1.4290
22.9784,478,1.5419
22.9827,549,1.7710
22.9871,524,1.6903
22.9914,437,1.4097
22.9957,442,1.4258
23.0000,539,1.7387
23.0045,563,1.8161
23.0088,494,1.5935
23.0131,431,1.3903
23.0174,469,1.5129
23.0217,551,1.7774
23.0260,537,1.7323
23.0303,445,1.4355
23.0346,437,1.4097
23.0389,518,1.6710
23.0432,573,1.8484
23.0475,531,1.7129
23.0518,438,1.4129
23.0561,447,1.4419
23.0604,553,1.7839
23.0647,571,1.8419
23.0690,500,1.6129
23.0733,444,1.4323
23.0776,495,1.5968
23.0819,593,1.9129
23.0862,579,1.8677
23.0905,475,1.5323
23.0947,464,1.4968
23.0990,553,1.7839
23.1033,612,1.9742
23.1076,568,1.8323
23.1120,475,1.5323
23.1163,499,1.6097
23.1207,614,1.9806
23.1250,624,2.0129
23.1293,547,1.7645
23.1337,502,1.6194
23.1380,558,1.8000
23.1423,650,2.0968
23.1467,630,2.0323
23.1510,533,1.7194
23.1553,536,1.7290
23.1596,639,2.0613
23.1640,684,2.2065
23.1683,631,2.0355
23.1726,550,1.7742
23.1770,584,1.8839
23.1813,697,2.2484
23.1856,692,2.2323
23.1900,590,1.9032
23.1943,556,1.7935
23.1986,623,2.0097
23.2029,689,2.2226
23.2073,648,2.0903
23.2116,541,1.7452
23.2159,542,1.7484
23.2202,638,2.0581
23.2245,645,2.0806
23.2288,565,1.8226
23.2331,478,1.5419
23.2374,502,1.6194
23.2416,590,1.9032
23.2459,573,1.8484
23.2502,462,1.4903
23.2545,427,1.3774
23.2588,493,1.5903
23.2631,550,1.7742
23.2674,511,1.6484
23.2717,413,1.3323
23.2760,424,1.3677
23.2803,528,1.7032
23.2846,544,1.7548
23.2889,475,1.5323
23.2932,415,1.3387
23.2975,458,1.4774
23.3017,556,1.7935
23.3060,546,1.7613
23.3103,442,1.4258
23.3147,422,1.3613
23.3190,502,1.6194
23.3233,560,1.8065
23.3277,522,1.6839
23.3320,432,1.3935
23.3363,451,1.4548
23.3407,557,1.7968
23.3450,558,1.8000
23.3494,480,1.5484
23.3537,439,1.4161
23.3580,492,1.5871
23.3623,567,1.8290
23.3667,537,1.7323
23.3710,431,1.3903
23.3753,433,1.3968
23.3797,531,1.7129
23.3840,568,1.8323
23.3883,512,1.6516
23.3927,427,1.3774
23.3970,451,1.4548
23.4013,550,1.7742
23.4056,545,1.7581
23.4100,453,1.4613
23.4143,423,1.3645
23.4186,491,1.5839
23.4229,560,1.8065
23.4272,526,1.6968
23.4315,421,1.3581
23.4358,427,1.3774
23.4401,532,1.7161
23.4444,557,1.7968
23.4487,491,1.5839
23.4530,419,1.3516
23.4572,452,1.4581
23.4615,548,1.7677
23.4658,548,1.7677
23.4701,463,1.4935
23.4744,434,1.4000
23.4787,494,1.5935
23.4830,552,1.7806
23.4873,512,1.6516
23.4916,418,1.3484
23.4959,430,1.3871
23.5002,533,1.7194
23.5044,559,1.8032
23.5087,496,1.6000
23.5130,423,1.3645
23.5174,453,1.4613
23.5217,545,1.7581
23.5260,538,1.7355
23.5304,449,1.4484
23.5347,431,1.3903
23.5390,509,1.6419
23.5434,562,1.8129
23.5477,523,1.6871
23.5520,433,1.3968
23.5564,449,1.4484
23.5607,550,1.7742
23.5651,558,1.8000
23.5696,477,1.5387
23.5740,438,1.4129
23.5784,498,1.6065
23.5827,567,1.8290
23.5871,540,1.7419
23.5914,450,1.4516
23.5958,457,1.4742
23.6001,553,1.7839
23.6044,578,1.8645
23.6087,513,1.6548
23.6131,448,1.4452
23.6174,486,1.5677
23.6217,582,1.8774
23.6260,576,1.8581
23.6303,487,1.5710
23.6346,468,1.5097
23.6389,531,1.7129
23.6432,580,1.8710
23.6478,532,1.7161
23.6521,437,1.4097
23.6564,447,1.4419
23.6607,547,1.7645
23.6650,560,1.8065
23.6693,489,1.5774
23.6736,443,1.4290
23.6779,493,1.5903
23.6822,577,1.8613
23.6865,559,1.8032
23.6908,457,1.4742
23.6951,439,1.4161
23.6994,510,1.6452
23.7037,542,1.7484
23.7080,506,1.6323
23.7123,467,1.5065
23.7166,560,1.8065
23.7210,752,2.4258
23.7253,884,2.8516
23.7296,940,3.0323
23.7340,991,3.1968
23.7383,999,3.2226
23.7426,1002,3.2323
23.7470,1000,3.2258
23.7513,888,2.8645
23.7556,737,2.3774
23.7600,690,2.2258
23.7643,613,1.9774
23.7686,486,1.5677
23.7729,389,1.2548
23.7773,424,1.3677
23.7816,532,1.7161
23.7859,534,1.7226
23.7903,452,1.4581
23.7946,433,1.3968
23.7989,498,1.6065
23.8033,549,1.7710
23.8076,510,1.6452
23.8120,425,1.3710
23.8163,440,1.4194
23.8207,528,1.7032
23.8250,539,1.7387
23.8293,474,1.5290
23.8336,429,1.3839
23.8379,473,1.5258
23.8422,556,1.7935
23.8465,541,1.7452
23.8508,447,1.4419
23.8551,436,1.4065
23.8594,514,1.6581
23.8637,563,1.8161
23.8681,521,1.6806
23.8725,450,1.4516
23.8768,475,1.5323
23.8811,568,1.8323
23.8854,573,1.8484
23.8897,494,1.5935
23.8940,454,1.4645
23.8983,509,1.6419
23.9026,592,1.9097
23.9069,579,1.8677
23.9112,490,1.5806
23.9155,485,1.5645
23.9198,572,1.8452
23.9241,610,1.9677
23.9285,564,1.8194
23.9328,501,1.6161
23.9371,536,1.7290
23.9415,636,2.0516
23.9458,640,2.0645
23.9501,552,1.7806
23.9544,528,1.7032
23.9588,592,1.9097
23.9631,661,2.1323
23.9674,633,2.0419
23.9718,548,1.7677
23.9761,558,1.8000
23.9804,655,2.1129
23.9848,669,2.1581
23.9891,603,1.9452
23.9934,544,1.7548
23.9977,581,1.8742
24.0021,659,2.1258
24.0064,631,2.0355
24.0108,524,1.6903
24.0151,510,1.6452
24.0194,583,1.8806
24.0237,614,1.9806
24.0281,554,1.7871
24.0323,461,1.4871
24.0366,470,1.5161
24.0409,563,1.8161
24.0452,559,1.8032
24.0495,469,1.5129
24.0538,419,1.3516
24.0581,461,1.4871
24.0624,539,1.7387
24.0667,521,1.6806
24.0710,427,1.3774
24.0753,418,1.3484
24.0796,502,1.6194
24.0839,542,1.7484
24.0882,497,1.6032
24.0925,421,1.3581
24.0968,441,1.4226
24.1011,535,1.7258
24.1053,542,1.7484
24.1096,464,1.4968
24.1139,423,1.3645
24.1182,473,1.5258
24.1226,554,1.7871
24.1269,535,1.7258
24.1313,440,1.4194
24.1356,440,1.4194
24.1399,526,1.6968
24.1442,559,1.8032
24.1486,506,1.6323
24.1529,433,1.3968
24.1572,455,1.4677
24.1615,544,1.7548
24.1659,539,1.7387
24.1702,457,1.4742
24.1745,433,1.3968
24.1789,492,1.5871
24.1832,547,1.7645
24.1875,512,1.6516
24.1919,421,1.3581
24.1962,429,1.3839
24.2005,528,1.7032
24.2048,542,1.7484
24.2092,478,1.5419
24.2135,424,1.3677
24.2179,461,1.4871
24.2222,542,1.7484
24.2265,525,1.6935
24.2308,428,1.3806
24.2351,416,1.3419
24.2394,491,1.5839
24.2437,535,1.7258
24.2480,492,1.5871
24.2523,411,1.3258
24.2566,427,1.3774
24.2609,523,1.6871
24.2651,535,1.7258
24.2694,464,1.4968
24.2737,417,1.3452
24.2780,461,1.4871
24.2823,537,1.7323
24.2866,519,1.6742
24.2909,423,1.3645
24.2952,412,1.3290
24.2995,498,1.6065
24.3038,547,1.7645
24.3081,505,1.6290
24.3124,416,1.3419
24.3167,428,1.3806
24.3210,526,1.6968
24.3253,535,1.7258
24.3296,455,1.4677
24.3340,409,1.3194
24.3383,465,1.5000
24.3426,545,1.7581
24.3470,519,1.6742
24.3513,426,1.3742
24.3556,424,1.3677
24.3600,513,1.6548
24.3643,547,1.7645
24.3686,490,1.5806
24.3729,413,1.3323
24.3773,442,1.4258
24.3816,543,1.7516
24.3859,547,1.7645
24.3903,467,1.5065
24.3946,443,1.4290
24.3990,514,1.6581
24.4033,569,1.8355
24.4076,532,1.7161
24.4119,443,1.4290
24.4163,454,1.4645
24.4206,557,1.7968
24.4249,575,1.8548
24.4292,498,1.6065
24.4335,425,1.3710
24.4378,453,1.4613
24.4421,534,1.7226
24.4464,526,1.6968
24.4508,435,1.4032
24.4551,426,1.3742
24.4594,505,1.6290
24.4638,550,1.7742
24.4682,504,1.6258
24.4726,419,1.3516
24.4770,444,1.4323
24.4813,542,1.7484
24.4856,532,1.7161
24.4898,435,1.4032
24.4941,381,1.2290
24.4984,439,1.4161
24.5027,559,1.8032
24.5070,613,1.9774
24.5113,613,1.9774
24.5156,732,2.3613
24.5199,973,3.1387
24.5242,1001,3.2290
24.5285,1002,3.2323
24.5329,1003,3.2355
24.5372,999,3.2226
24.5416,998,3.2194
24.5459,874,2.8194
24.5502,610,1.9677
24.5545,448,1.4452
24.5589,449,1.4484
24.5632,503,1.6226
24.5676,474,1.5290
24.5719,389,1.2548
24.5762,402,1.2968
24.5806,498,1.6065
24.5849,508,1.6387
24.5892,434,1.4000
24.5935,370,1.1935
24.5979,410,1.3226
24.6022,504,1.6258
24.6066,496,1.6000
24.6109,402,1.2968
24.6152,391,1.2613
24.6195,474,1.5290
24.6239,521,1.6806
24.6282,472,1.5226
24.6325,387,1.2484
24.6368,409,1.3194
24.6411,516,1.6645
24.6454,520,1.6774
24.6497,437,1.4097
24.6540,391,1.2613
24.6583,447,1.4419
24.6626,540,1.7419
24.6669,525,1.6935
24.6711,432,1.3935
24.6754,425,1.3710
24.6797,512,1.6516
24.6840,557,1.7968
24.6883,512,1.6516
24.6926,426,1.3742
24.6969,452,1.4581
24.7012,564,1.8194
24.7056,572,1.8452
24.7099,484,1.5613
24.7142,447,1.4419
24.7184,512,1.6516
24.7227,602,1.9419
24.7271,583,1.8806
24.7314,483,1.5581
24.7357,489,1.5774
24.7401,589,1.9000
24.7444,631,2.0355
24.7488,577,1.8613
24.7531,503,1.6226
24.7574,537,1.7323
24.7617,641,2.0677
24.7662,640,2.0645
24.7706,541,1.7452
24.7750,518,1.6710
24.7794,593,1.9129
24.7837,644,2.0774
24.7882,600,1.9355
24.7925,504,1.6258
24.7968,516,1.6645
24.8011,609,1.9645
24.8055,605,1.9516
24.8098,512,1.6516
24.8141,454,1.4645
24.8185,496,1.6000
24.8228,559,1.8032
24.8271,519,1.6742
24.8314,407,1.3129
24.8357,394,1.2710
24.8400,482,1.5548
24.8443,515,1.6613
24.8486,454,1.4645
24.8529,370,1.1935
24.8572,394,1.2710
24.8615,501,1.6161
24.8658,502,1.6194
24.8701,416,1.3419
24.8744,375,1.2097
24.8787,429,1.3839
24.8830,507,1.6355
24.8872,486,1.5677
24.8915,390,1.2581
24.8958,392,1.2645
24.9001,486,1.5677
24.9044,519,1.6742
24.9087,463,1.4935
24.9130,386,1.2452
24.9173,414,1.3355
24.9216,517,1.6677
24.9259,520,1.6774
24.9302,428,1.3806
24.9346,395,1.2742
24.9389,461,1.4871
24.9432,535,1.7258
24.9476,499,1.6097
24.9519,396,1.2774
24.9562,398,1.2839
24.9605,500,1.6129
24.9649,527,1.7000
24.9692,463,1.4935
24.9735,394,1.2710
24.9779,426,1.3742
24.9822,518,1.6710
24.9866,505,1.6290
24.9909,404,1.3032
24.9952,387,1.2484
24.9996,468,1.5097
25.0039,519,1.6742
25.0082,475,1.5323
25.0126,391,1.2613
25.0169,408,1.3161
25.0212,505,1.6290
25.0262,502,1.6194
25.0306,412,1.3290
25.0351,392,1.2645
25.0396,473,1.5258
25.0442,519,1.6742
25.0486,468,1.5097
25.0531,388,1.2516
25.0574,410,1.3226
25.0617,507,1.6355
25.0660,507,1.6355
25.0703,420,1.3548
25.0746,392,1.2645
25.0789,458,1.4774
25.0832,531,1.7129
25.0875,498,1.6065
25.0918,393,1.2677
25.0961,391,1.2613
25.1004,489,1.5774
25.1047,519,1.6742
25.1089,459,1.4806
25.1132,387,1.2484
25.1175,419,1.3516
25.1218,518,1.6710
25.1261,519,1.6742
25.1304,428,1.3806
25.1347,396,1.2774
25.1390,463,1.4935
25.1433,536,1.7290
25.1476,505,1.6290
25.1519,404,1.3032
25.1562,404,1.3032
25.1605,501,1.6161
25.1648,526,1.6968
25.1691,466,1.5032
25.1734,404,1.3032
25.1776,450,1.4516
25.1819,555,1.7903
25.1862,546,1.7613
25.1905,448,1.4452
25.1948,422,1.3613
25.1991,496,1.6000
25.2034,567,1.8290
25.2077,536,1.7290
25.2120,435,1.4032
25.2163,432,1.3935
25.2206,526,1.6968
25.2249,540,1.7419
25.2292,467,1.5065
25.2335,392,1.2645
25.2378,429,1.3839
25.2422,534,1.7226
25.2465,532,1.7161
25.2509,427,1.3774
25.2552,409,1.3194
25.2596,488,1.5742
25.2639,537,1.7323
25.2682,488,1.5742
25.2725,393,1.2677
25.2769,403,1.3000
25.2812,495,1.5968
25.2855,507,1.6355
25.2899,469,1.5129
25.2942,499,1.6097
25.2985,647,2.0871
25.3029,866,2.7935
25.3072,992,3.2000
25.3115,994,3.2065
25.3159,1000,3.2258
25.3202,1002,3.2323
25.3245,1000,3.2258
25.3288,899,2.9000
25.3332,655,2.1129
25.3375,535,1.7258
25.3418,546,1.7613
25.3461,501,1.6161
25.3504,395,1.2742
25.3547,362,1.1677
25.3589,432,1.3935
25.3633,514,1.6581
25.3677,472,1.5226
25.3720,369,1.1903
25.3764,372,1.2000
25.3808,472,1.5226
25.3851,491,1.5839
25.3894,421,1.3581
25.3937,356,1.1484
25.3980,395,1.2742
25.4023,496,1.6000
25.4066,489,1.5774
25.4108,394,1.2710
25.4151,375,1.2097
25.4198,463,1.4935
25.4241,517,1.6677
25.4285,469,1.5129
25.4328,379,1.2226
25.4371,400,1.2903
25.4414,504,1.6258
25.4457,511,1.6484
25.4500,434,1.4000
25.4543,392,1.2645
25.4586,445,1.4355
25.4629,536,1.7290
25.4672,520,1.6774
25.4714,422,1.3613
25.4757,416,1.3419
25.4800,511,1.6484
25.4844,553,1.7839
25.4887,505,1.6290
25.4930,427,1.3774
25.4973,457,1.4742
25.5016,565,1.8226
25.5059,573,1.8484
25.5102,493,1.5903
25.5145,459,1.4806
25.5188,524,1.6903
25.5231,614,1.9806
25.5274,592,1.9097
25.5317,496,1.6000
25.5361,499,1.6097
25.5404,599,1.9323
25.5447,632,2.0387
25.5491,581,1.8742
25.5534,513,1.6548
25.5577,543,1.7516
25.5621,631,2.0355
25.5664,617,1.9903
25.5708,516,1.6645
25.5751,491,1.5839
25.5794,558,1.8000
25.5837,612,1.9742
25.5881,563,1.8161
25.5924,459,1.4806
25.5968,462,1.4903
25.6011,554,1.7871
25.6054,558,1.8000
25.6097,470,1.5161
25.6141,405,1.3065
25.6184,442,1.4258
25.6227,521,1.6806
25.6270,495,1.5968
25.6314,389,1.2548
25.6357,374,1.2065
25.6400,461,1.4871
25.6443,508,1.6387
25.6486,460,1.4839
25.6529,373,1.2032
25.6572,392,1.2645
25.6615,498,1.6065
25.6658,503,1.6226
25.6702,418,1.3484
25.6746,379,1.2226
25.6790,442,1.4258
25.6832,518,1.6710
25.6876,487,1.5710
25.6919,388,1.2516
25.6962,390,1.2581
25.7005,492,1.5871
25.7048,529,1.7065
25.7091,472,1.5226
25.7134,392,1.2645
25.7177,420,1.3548
25.7219,521,1.6806
25.7262,519,1.6742
25.7305,429,1.3839
25.7348,393,1.2677
25.7391,458,1.4774
25.7434,535,1.7258
25.7477,503,1.6226
25.7520,403,1.3000
25.7563,402,1.2968
25.7606,498,1.6065
25.7649,528,1.7032
25.7692,469,1.5129
25.7735,390,1.2581
25.7778,417,1.3452
25.7820,518,1.6710
25.7863,516,1.6645
25.7907,422,1.3613
25.7950,388,1.2516
25.7993,452,1.4581
25.8035,527,1.7000
25.8078,499,1.6097
25.8121,403,1.3000
25.8164,403,1.3000
25.8207,493,1.5903
25.8250,509,1.6419
25.8293,449,1.4484
25.8336,382,1.2323
25.8380,423,1.3645
25.8423,525,1.6935
25.8466,513,1.6548
25.8510,413,1.3323
25.8553,388,1.2516
25.8596,462,1.4903
25.8640,527,1.7000
25.8683,488,1.5742
25.8726,392,1.2645
25.8770,403,1.3000
25.8813,505,1.6290
25.8856,518,1.6710
25.8899,444,1.4323
25.8943,389,1.2548
25.8986,442,1.4258
25.9029,536,1.7290
25.9073,514,1.6581
25.9116,409,1.3194
25.9159,403,1.3000
25.9202,492,1.5871
25.9246,530,1.7097
25.9289,474,1.5290
25.9332,395,1.2742
25.9376,429,1.3839
25.9419,535,1.7258
25.9462,532,1.7161
25.9506,436,1.4065
25.9549,402,1.2968
25.9592,478,1.5419
25.9636,558,1.8000
25.9679,530,1.7097
25.9722,427,1.3774
25.9766,430,1.3871
25.9809,532,1.7161
25.9852,562,1.8129
25.9896,501,1.6161
25.9939,428,1.3806
25.9982,463,1.4935
26.0026,554,1.7871
26.0069,532,1.7161
26.0112,426,1.3742
26.0155,405,1.3065
26.0199,486,1.5677
26.0242,546,1.7613
26.0285,507,1.6355
26.0329,414,1.3355
26.0373,430,1.3871
26.0417,535,1.7258
26.0459,541,1.7452
26.0502,455,1.4677
26.0545,402,1.2968
26.0588,451,1.4548
26.0631,533,1.7194
26.0674,517,1.6677
26.0717,449,1.4484
26.0760,506,1.6323
26.0803,678,2.1871
26.0846,836,2.6968
26.0889,925,2.9839
26.0932,947,3.0548
26.0975,999,3.2226
26.1018,1002,3.2323
26.1060,999,3.2226
26.1103,899,2.9000
26.1146,710,2.2903
26.1189,628,2.0258
26.1232,606,1.9548
26.1275,508,1.6387
26.1318,373,1.2032
26.1361,361,1.1645
26.1405,460,1.4839
26.1448,507,1.6355
26.1491,454,1.4645
26.1535,377,1.2161
26.1578,406,1.3097
26.1621,506,1.6323
26.1665,501,1.6161
26.1708,413,1.3323
26.1751,385,1.2419
26.1795,453,1.4613
26.1838,528,1.7032
26.1881,498,1.6065
26.1925,402,1.2968
26.1968,405,1.3065
26.2011,505,1.6290
26.2055,528,1.7032
26.2098,467,1.5065
26.2141,405,1.3065
26.2184,448,1.4452
26.2228,546,1.7613
26.2271,535,1.7258
26.2314,434,1.4000
26.2358,422,1.3613
26.2401,510,1.6452
26.2444,569,1.8355
26.2487,524,1.6903
26.2530,432,1.3935
26.2573,455,1.4677
26.2616,563,1.8161
26.2659,578,1.8645
26.2704,501,1.6161
26.2748,457,1.4742
26.2791,515,1.6613
26.2834,605,1.9516
26.2877,585,1.8871
26.2920,487,1.5710
26.2963,492,1.5871
26.3007,595,1.9194
26.3050,640,2.0645
26.3093,590,1.9032
26.3135,512,1.6516
26.3178,542,1.7484
26.3221,644,2.0774
26.3264,647,2.0871
26.3307,563,1.8161
26.3351,530,1.7097
26.3394,595,1.9194
26.3437,674,2.1742
26.3480,642,2.0710
26.3523,538,1.7355
26.3566,533,1.7194
26.3609,625,2.0161
26.3652,648,2.0903
26.3695,582,1.8774
26.3738,497,1.6032
26.3781,518,1.6710
26.3823,609,1.9645
26.3867,587,1.8935
26.3910,480,1.5484
26.3952,440,1.4194
26.3995,503,1.6226
26.4038,571,1.8419
26.4081,532,1.7161
26.4124,421,1.3581
26.4167,418,1.3484
26.4210,514,1.6581
26.4253,539,1.7387
26.4296,478,1.5419
26.4339,409,1.3194
26.4382,444,1.4323
26.4426,546,1.7613
26.4469,541,1.7452
26.4512,446,1.4387
26.4556,416,1.3419
26.4599,484,1.5613
26.4642,547,1.7645
26.4686,511,1.6484
26.4729,421,1.3581
26.4772,436,1.4065
26.4816,543,1.7516
26.4859,558,1.8000
26.4902,474,1.5290
26.4946,416,1.3419
26.4989,464,1.4968
26.5032,553,1.7839
26.5075,539,1.7387
26.5119,440,1.4194
26.5162,431,1.3903
26.5205,519,1.6742
26.5249,562,1.8129
