time_s,adc_raw,voltage
0.0000,421,1.3581
0.0172,452,1.4581
0.0215,458,1.4774
0.0259,537,1.7323
0.0304,577,1.8613
0.0349,537,1.7323
0.0393,485,1.5645
0.0437,511,1.6484
0.0482,575,1.8548
0.0526,552,1.7806
0.0570,483,1.5581
0.0614,470,1.5161
0.0657,520,1.6774
0.0701,530,1.7097
0.0745,468,1.5097
0.0788,419,1.3516
0.0831,449,1.4484
0.0875,514,1.6581
0.0918,525,1.6935
0.0962,502,1.6194
0.1006,503,1.6226
0.1049,544,1.7548
0.1092,548,1.7677
0.1135,508,1.6387
0.1178,475,1.5323
0.1220,511,1.6484
0.1264,580,1.8710
0.1307,595,1.9194
0.1351,542,1.7484
0.1394,511,1.6484
0.1437,551,1.7774
0.1480,612,1.9742
0.1524,590,1.9032
0.1569,495,1.5968
0.1614,470,1.5161
0.1659,572,1.8452
0.1705,640,2.0645
0.1748,590,1.9032
0.1791,547,1.7645
0.1834,559,1.8032
0.1879,598,1.9290
0.1924,595,1.9194
0.1970,563,1.8161
0.2016,559,1.8032
0.2063,603,1.9452
0.2109,601,1.9387
0.2156,541,1.7452
0.2202,518,1.6710
0.2248,585,1.8871
0.2291,640,2.0645
0.2334,606,1.9548
0.2377,544,1.7548
0.2420,531,1.7129
0.2463,571,1.8419
0.2507,589,1.9000
0.2550,566,1.8258
0.2592,577,1.8613
0.2634,694,2.2387
0.2676,847,2.7323
0.2718,905,2.9194
0.2761,832,2.6839
0.2803,708,2.2839
0.2846,674,2.1742
0.2888,681,2.1968
0.2930,635,2.0484
0.2972,570,1.8387
0.3015,586,1.8903
0.3058,668,2.1548
0.3101,664,2.1419
0.3144,571,1.8419
0.3187,493,1.5903
0.3230,482,1.5548
0.3273,515,1.6613
0.3316,536,1.7290
0.3359,508,1.6387
0.3402,491,1.5839
0.3445,535,1.7258
0.3488,572,1.8452
0.3531,553,1.7839
0.3574,515,1.6613
0.3617,526,1.6968
0.3661,558,1.8000
0.3704,569,1.8355
0.3748,524,1.6903
0.3792,481,1.5516
0.3835,503,1.6226
0.3878,555,1.7903
0.3921,544,1.7548
0.3964,487,1.5710
0.4006,450,1.4516
0.4049,471,1.5194
0.4092,522,1.6839
0.4134,513,1.6548
0.4177,481,1.5516
0.4220,511,1.6484
0.4263,569,1.8355
0.4306,579,1.8677
0.4348,540,1.7419
0.4390,498,1.6065
0.4433,518,1.6710
0.4475,567,1.8290
0.4518,550,1.7742
0.4561,495,1.5968
0.4603,481,1.5516
0.4646,503,1.6226
0.4688,530,1.7097
0.4730,508,1.6387
0.4773,467,1.5065
0.4815,479,1.5452
0.4858,538,1.7355
0.4901,581,1.8742
0.4944,541,1.7452
0.4987,493,1.5903
0.5030,519,1.6742
0.5072,584,1.8839
0.5115,613,1.9774
0.5157,582,1.8774
0.5200,548,1.7677
0.5243,572,1.8452
0.5286,581,1.8742
0.5328,540,1.7419
0.5370,488,1.5742
0.5413,499,1.6097
0.5455,550,1.7742
0.5500,574,1.8516
0.5543,522,1.6839
0.5585,456,1.4710
0.5628,434,1.4000
0.5671,455,1.4677
0.5713,473,1.5258
0.5757,428,1.3806
0.5800,391,1.2613
0.5843,434,1.4000
0.5886,499,1.6097
0.5928,488,1.5742
0.5971,432,1.3935
0.6014,427,1.3774
0.6057,492,1.5871
0.6100,547,1.7645
0.6143,508,1.6387
0.6186,438,1.4129
0.6229,457,1.4742
0.6271,524,1.6903
0.6313,546,1.7613
0.6355,505,1.6290
0.6398,486,1.5677
0.6440,537,1.7323
0.6483,569,1.8355
0.6526,532,1.7161
0.6568,481,1.5516
0.6610,475,1.5323
0.6652,550,1.7742
0.6695,589,1.9000
0.6737,554,1.7871
0.6779,508,1.6387
0.6821,540,1.7419
0.6864,609,1.9645
0.6907,634,2.0452
0.6950,572,1.8452
0.6993,497,1.6032
0.7036,508,1.6387
0.7078,546,1.7613
0.7121,539,1.7387
0.7163,499,1.6097
0.7204,459,1.4806
0.7246,493,1.5903
0.7288,533,1.7194
0.7330,531,1.7129
0.7372,490,1.5806
0.7414,478,1.5419
0.7456,512,1.6516
0.7498,532,1.7161
0.7540,487,1.5710
0.7582,444,1.4323
0.7624,470,1.5161
0.7666,518,1.6710
0.7709,519,1.6742
0.7752,482,1.5548
0.7795,494,1.5935
0.7837,550,1.7742
0.7880,585,1.8871
0.7923,551,1.7774
0.7965,489,1.5774
0.8008,481,1.5516
0.8050,532,1.7161
0.8093,562,1.8129
0.8135,526,1.6968
0.8177,472,1.5226
0.8219,481,1.5516
0.8263,535,1.7258
0.8306,552,1.7806
0.8349,519,1.6742
0.8393,463,1.4935
0.8437,471,1.5194
0.8480,516,1.6645
0.8523,512,1.6516
0.8568,472,1.5226
0.8612,473,1.5258
0.8657,515,1.6613
0.8701,532,1.7161
0.8745,454,1.4645
0.8789,421,1.3581
0.8832,496,1.6000
0.8876,563,1.8161
0.8920,535,1.7258
0.8963,443,1.4290
0.9007,415,1.3387
0.9051,484,1.5613
0.9094,522,1.6839
0.9137,482,1.5548
0.9181,452,1.4581
0.9224,473,1.5258
0.9268,523,1.6871
0.9312,515,1.6613
0.9355,426,1.3742
0.9399,375,1.2097
0.9442,415,1.3387
0.9485,480,1.5484
0.9528,474,1.5290
0.9572,413,1.3323
0.9615,400,1.2903
0.9659,452,1.4581
0.9702,478,1.5419
0.9746,409,1.3194
0.9789,335,1.0806
0.9833,336,1.0839
0.9876,395,1.2742
0.9919,406,1.3097
0.9962,360,1.1613
1.0006,321,1.0355
1.0050,354,1.1419
1.0093,385,1.2419
1.0136,362,1.1677
1.0179,337,1.0871
1.0223,402,1.2968
1.0266,542,1.7484
1.0310,615,1.9839
1.0353,596,1.9226
1.0396,582,1.8774
1.0440,593,1.9129
1.0483,549,1.7710
1.0526,431,1.3903
1.0569,324,1.0452
1.0613,312,1.0065
1.0657,378,1.2194
1.0701,392,1.2645
1.0744,315,1.0161
1.0788,237,0.7645
1.0831,261,0.8419
1.0875,358,1.1548
1.0919,372,1.2000
1.0962,295,0.9516
1.1005,269,0.8677
1.1048,351,1.1323
1.1091,414,1.3355
1.1135,396,1.2774
1.1179,361,1.1645
1.1223,380,1.2258
1.1266,448,1.4452
1.1309,469,1.5129
1.1353,413,1.3323
1.1396,355,1.1452
1.1440,355,1.1452
1.1483,385,1.2419
1.1526,379,1.2226
1.1570,345,1.1129
1.1613,358,1.1548
1.1657,410,1.3226
1.1700,422,1.3613
1.1744,375,1.2097
1.1787,368,1.1871
1.1831,440,1.4194
1.1874,530,1.7097
1.1918,540,1.7419
1.1961,473,1.5258
1.2004,435,1.4032
1.2048,493,1.5903
1.2091,575,1.8548
1.2135,576,1.8581
1.2178,524,1.6903
1.2221,522,1.6839
1.2264,571,1.8419
1.2307,608,1.9613
1.2350,571,1.8419
1.2393,534,1.7226
1.2437,567,1.8290
1.2480,578,1.8645
1.2523,525,1.6935
1.2566,465,1.5000
1.2609,503,1.6226
1.2652,610,1.9677
1.2695,661,2.1323
1.2740,611,1.9710
1.2783,520,1.6774
1.2826,508,1.6387
1.2869,562,1.8129
1.2913,564,1.8194
1.2956,509,1.6419
1.2999,492,1.5871
1.3041,530,1.7097
1.3084,577,1.8613
1.3127,574,1.8516
1.3170,505,1.6290
1.3214,462,1.4903
1.3257,488,1.5742
1.3300,505,1.6290
1.3343,449,1.4484
1.3386,400,1.2903
1.3429,411,1.3258
1.3472,420,1.3548
1.3515,383,1.2355
1.3559,321,1.0355
1.3601,308,0.9935
1.3644,375,1.2097
1.3687,439,1.4161
1.3730,426,1.3742
1.3773,384,1.2387
1.3815,380,1.2258
1.3858,432,1.3935
1.3901,463,1.4935
1.3943,435,1.4032
1.3985,424,1.3677
1.4028,472,1.5226
1.4070,535,1.7258
1.4112,510,1.6452
1.4154,428,1.3806
1.4195,384,1.2387
1.4237,413,1.3323
1.4279,484,1.5613
1.4321,526,1.6968
1.4363,499,1.6097
1.4405,487,1.5710
1.4447,522,1.6839
1.4489,559,1.8032
1.4531,556,1.7935
1.4574,512,1.6516
1.4616,534,1.7226
1.4659,600,1.9355
1.4701,616,1.9871
1.4742,568,1.8323
1.4784,514,1.6581
1.4826,507,1.6355
1.4868,578,1.8645
1.4910,612,1.9742
1.4952,577,1.8613
1.4994,515,1.6613
1.5036,526,1.6968
1.5078,579,1.8677
1.5120,570,1.8387
1.5162,532,1.7161
1.5204,542,1.7484
1.5246,609,1.9645
1.5288,639,2.0613
1.5330,584,1.8839
1.5372,498,1.6065
1.5413,481,1.5516
1.5455,542,1.7484
1.5497,584,1.8839
1.5539,542,1.7484
1.5581,473,1.5258
1.5623,479,1.5452
1.5665,528,1.7032
1.5707,544,1.7548
1.5749,516,1.6645
1.5791,467,1.5065
1.5833,491,1.5839
1.5875,540,1.7419
1.5917,524,1.6903
1.5959,453,1.4613
1.6001,430,1.3871
1.6043,484,1.5613
1.6086,547,1.7645
1.6128,552,1.7806
1.6170,521,1.6806
1.6212,507,1.6355
1.6253,525,1.6935
1.6296,537,1.7323
1.6337,507,1.6355
1.6379,470,1.5161
1.6421,476,1.5355
1.6463,527,1.7000
1.6505,557,1.7968
1.6547,507,1.6355
1.6589,444,1.4323
1.6631,447,1.4419
1.6673,499,1.6097
1.6715,508,1.6387
1.6757,448,1.4452
1.6798,418,1.3484
1.6840,470,1.5161
1.6882,541,1.7452
1.6924,533,1.7194
1.6966,480,1.5484
1.7008,484,1.5613
1.7050,528,1.7032
1.7093,562,1.8129
1.7135,483,1.5581
1.7177,371,1.1968
1.7218,342,1.1032
1.7260,407,1.3129
1.7302,440,1.4194
1.7344,399,1.2871
1.7386,371,1.1968
1.7428,413,1.3323
1.7470,475,1.5323
1.7512,470,1.5161
1.7554,408,1.3161
1.7596,382,1.2323
1.7638,435,1.4032
1.7680,508,1.6387
1.7722,492,1.5871
1.7766,428,1.3806
1.7808,411,1.3258
1.7849,480,1.5484
1.7891,593,1.9129
1.7933,679,2.1903
1.7975,696,2.2452
1.8017,721,2.3258
1.8059,728,2.3484
1.8101,657,2.1194
1.8144,523,1.6871
1.8185,414,1.3355
1.8227,396,1.2774
1.8269,450,1.4516
1.8311,475,1.5323
1.8354,433,1.3968
1.8396,392,1.2645
1.8439,406,1.3097
1.8482,451,1.4548
1.8525,449,1.4484
1.8573,413,1.3323
1.8616,444,1.4323
1.8659,497,1.6032
1.8701,493,1.5903
1.8744,409,1.3194
1.8787,316,1.0194
1.8830,310,1.0000
1.8873,410,1.3226
1.8917,453,1.4613
1.8959,412,1.3290
1.9002,358,1.1548
1.9045,372,1.2000
1.9088,425,1.3710
1.9130,447,1.4419
1.9173,428,1.3806
1.9216,430,1.3871
1.9258,479,1.5452
1.9300,490,1.5806
1.9342,438,1.4129
1.9384,390,1.2581
1.9426,438,1.4129
1.9467,542,1.7484
1.9509,585,1.8871
1.9551,535,1.7258
1.9593,475,1.5323
1.9635,490,1.5806
1.9677,528,1.7032
1.9719,513,1.6548
1.9761,465,1.5000
1.9802,444,1.4323
1.9844,499,1.6097
1.9886,578,1.8645
1.9928,602,1.9419
1.9970,557,1.7968
2.0011,536,1.7290
2.0053,583,1.8806
2.0095,635,2.0484
2.0137,610,1.9677
2.0180,539,1.7387
2.0223,537,1.7323
2.0265,601,1.9387
2.0308,604,1.9484
2.0351,513,1.6548
2.0394,441,1.4226
2.0437,464,1.4968
2.0479,504,1.6258
2.0522,486,1.5677
2.0564,432,1.3935
2.0608,458,1.4774
2.0651,540,1.7419
2.0694,580,1.8710
2.0737,538,1.7355
2.0780,478,1.5419
2.0823,485,1.5645
2.0866,539,1.7387
2.0908,555,1.7903
2.0950,513,1.6548
2.0992,469,1.5129
2.1034,512,1.6516
2.1076,595,1.9194
2.1118,620,2.0000
2.1160,557,1.7968
2.1202,502,1.6194
2.1244,545,1.7581
2.1286,599,1.9323
2.1328,588,1.8968
2.1370,520,1.6774
2.1412,481,1.5516
2.1454,518,1.6710
2.1496,558,1.8000
2.1537,535,1.7258
2.1579,472,1.5226
2.1622,445,1.4355
2.1664,486,1.5677
2.1706,523,1.6871
2.1750,502,1.6194
2.1793,467,1.5065
2.1836,504,1.6258
2.1879,552,1.7806
2.1922,556,1.7935
2.1964,505,1.6290
2.2007,469,1.5129
2.2050,510,1.6452
2.2092,558,1.8000
2.2135,534,1.7226
2.2178,475,1.5323
2.2221,465,1.5000
2.2263,507,1.6355
2.2306,520,1.6774
2.2348,483,1.5581
2.2390,446,1.4387
2.2433,479,1.5452
2.2475,557,1.7968
2.2517,566,1.8258
2.2560,490,1.5806
2.2602,459,1.4806
2.2645,535,1.7258
2.2687,609,1.9645
2.2729,579,1.8677
2.2771,486,1.5677
2.2813,464,1.4968
2.2855,521,1.6806
2.2897,559,1.8032
2.2939,534,1.7226
2.2980,510,1.6452
2.3022,540,1.7419
2.3064,580,1.8710
2.3106,591,1.9065
2.3149,538,1.7355
2.3191,488,1.5742
2.3233,511,1.6484
2.3276,570,1.8387
2.3318,571,1.8419
2.3361,515,1.6613
2.3403,503,1.6226
2.3445,550,1.7742
2.3487,614,1.9806
2.3529,593,1.9129
2.3571,506,1.6323
2.3614,477,1.5387
2.3656,552,1.7806
2.3699,621,2.0032
2.3742,572,1.8452
2.3785,477,1.5387
2.3829,473,1.5258
2.3872,550,1.7742
2.3915,579,1.8677
2.3957,523,1.6871
2.4000,477,1.5387
2.4042,508,1.6387
2.4085,560,1.8065
2.4127,539,1.7387
2.4169,465,1.5000
2.4211,451,1.4548
2.4253,522,1.6839
2.4295,585,1.8871
2.4337,557,1.7968
2.4379,495,1.5968
2.4421,502,1.6194
2.4463,569,1.8355
2.4506,604,1.9484
2.4548,548,1.7677
2.4591,484,1.5613
2.4634,506,1.6323
2.4676,574,1.8516
2.4718,578,1.8645
2.4760,504,1.6258
2.4802,442,1.4258
2.4845,479,1.5452
2.4887,536,1.7290
2.4930,521,1.6806
2.4973,429,1.3839
2.5016,420,1.3548
2.5060,519,1.6742
2.5102,572,1.8452
2.5146,544,1.7548
2.5189,493,1.5903
2.5231,515,1.6613
2.5274,559,1.8032
2.5317,544,1.7548
2.5359,472,1.5226
2.5402,417,1.3452
2.5444,449,1.4484
2.5487,513,1.6548
2.5529,516,1.6645
2.5572,451,1.4548
2.5613,435,1.4032
2.5656,487,1.5710
2.5698,530,1.7097
2.5739,509,1.6419
2.5781,497,1.6032
2.5823,563,1.8161
2.5865,691,2.2290
2.5907,802,2.5871
2.5949,825,2.6613
2.5991,753,2.4290
2.6032,678,2.1871
2.6075,618,1.9935
2.6117,540,1.7419
2.6159,439,1.4161
2.6202,410,1.3226
2.6244,491,1.5839
2.6286,578,1.8645
2.6328,555,1.7903
2.6370,479,1.5452
2.6411,453,1.4613
2.6453,535,1.7258
2.6496,631,2.0355
2.6539,611,1.9710
2.6581,549,1.7710
2.6624,534,1.7226
2.6667,574,1.8516
2.6710,556,1.7935
2.6753,476,1.5355
2.6796,441,1.4226
2.6838,491,1.5839
2.6881,542,1.7484
2.6924,529,1.7065
2.6967,472,1.5226
2.7009,445,1.4355
2.7052,514,1.6581
2.7094,568,1.8323
2.7137,531,1.7129
2.7180,459,1.4806
2.7222,456,1.4710
2.7265,516,1.6645
2.7307,549,1.7710
2.7349,513,1.6548
2.7392,463,1.4935
2.7434,498,1.6065
2.7477,576,1.8581
2.7520,589,1.9000
2.7563,539,1.7387
2.7606,520,1.6774
2.7648,564,1.8194
2.7691,619,1.9968
2.7734,613,1.9774
2.7777,561,1.8097
2.7820,559,1.8032
2.7862,620,2.0000
2.7904,653,2.1065
2.7946,622,2.0065
2.7988,576,1.8581
2.8030,586,1.8903
2.8072,630,2.0323
2.8115,645,2.0806
2.8157,604,1.9484
2.8200,589,1.9000
2.8242,642,2.0710
2.8284,695,2.2419
2.8326,655,2.1129
2.8368,574,1.8516
2.8410,553,1.7839
2.8452,601,1.9387
2.8493,648,2.0903
2.8535,635,2.0484
2.8577,576,1.8581
2.8619,571,1.8419
2.8661,626,2.0194
2.8703,658,2.1226
2.8745,609,1.9645
2.8787,544,1.7548
2.8829,566,1.8258
2.8871,639,2.0613
2.8913,634,2.0452
2.8955,563,1.8161
2.8998,525,1.6935
2.9040,565,1.8226
2.9083,633,2.0419
2.9126,638,2.0581
2.9170,568,1.8323
2.9213,532,1.7161
2.9255,574,1.8516
2.9298,610,1.9677
2.9340,579,1.8677
2.9383,509,1.6419
2.9426,516,1.6645
2.9469,580,1.8710
2.9512,596,1.9226
2.9554,543,1.7516
2.9597,521,1.6806
2.9639,559,1.8032
2.9682,604,1.9484
2.9726,578,1.8645
2.9769,517,1.6677
2.9811,524,1.6903
2.9854,609,1.9645
2.9897,651,2.1000
2.9940,602,1.9419
2.9982,516,1.6645
3.0024,502,1.6194
3.0067,553,1.7839
3.0109,569,1.8355
3.0151,508,1.6387
3.0193,456,1.4710
3.0235,479,1.5452
3.0277,542,1.7484
3.0319,546,1.7613
3.0361,476,1.5355
3.0403,435,1.4032
3.0444,478,1.5419
3.0486,537,1.7323
3.0528,536,1.7290
3.0570,494,1.5935
3.0612,510,1.6452
3.0653,574,1.8516
3.0696,618,1.9935
3.0739,584,1.8839
3.0782,513,1.6548
3.0824,494,1.5935
3.0867,550,1.7742
3.0909,577,1.8613
3.0950,520,1.6774
3.0992,464,1.4968
3.1034,479,1.5452
3.1076,528,1.7032
3.1118,521,1.6806
3.1160,450,1.4516
3.1203,397,1.2806
3.1245,429,1.3839
3.1288,461,1.4871
3.1330,428,1.3806
3.1373,388,1.2516
3.1416,379,1.2226
3.1459,438,1.4129
3.1502,487,1.5710
3.1545,462,1.4903
3.1587,416,1.3419
3.1629,444,1.4323
3.1672,509,1.6419
3.1715,510,1.6452
3.1757,446,1.4387
3.1799,422,1.3613
3.1842,484,1.5613
3.1884,561,1.8097
3.1926,547,1.7645
3.1967,470,1.5161
3.2009,456,1.4710
3.2052,516,1.6645
3.2094,574,1.8516
3.2136,542,1.7484
3.2178,478,1.5419
3.2220,457,1.4742
3.2263,509,1.6419
3.2305,520,1.6774
3.2347,462,1.4903
3.2389,425,1.3710
3.2432,449,1.4484
3.2474,500,1.6129
3.2517,509,1.6419
3.2560,454,1.4645
3.2602,396,1.2774
3.2646,406,1.3097
3.2689,437,1.4097
3.2731,385,1.2419
3.2774,299,0.9645
3.2817,303,0.9774
3.2860,403,1.3000
3.2904,463,1.4935
3.2947,422,1.3613
3.2990,375,1.2097
3.3032,419,1.3516
3.3075,516,1.6645
3.3118,546,1.7613
3.3161,476,1.5355
3.3204,402,1.2968
3.3246,424,1.3677
3.3290,471,1.5194
3.3333,439,1.4161
3.3378,361,1.1645
3.3421,347,1.1194
3.3464,449,1.4484
3.3508,520,1.6774
3.3552,503,1.6226
3.3596,516,1.6645
3.3640,643,2.0742
3.3684,812,2.6194
3.3728,853,2.7516
3.3772,724,2.3355
3.3816,560,1.8065
3.3860,508,1.6387
3.3903,522,1.6839
3.3947,494,1.5935
3.3990,472,1.5226
3.4033,509,1.6419
3.4078,566,1.8258
3.4122,572,1.8452
3.4165,532,1.7161
3.4208,518,1.6710
3.4251,551,1.7774
3.4294,559,1.8032
3.4338,499,1.6097
3.4381,449,1.4484
3.4424,477,1.5387
3.4468,560,1.8065
3.4512,575,1.8548
3.4555,492,1.5871
3.4598,406,1.3097
3.4642,428,1.3806
3.4685,497,1.6032
3.4728,501,1.6161
3.4772,454,1.4645
3.4815,449,1.4484
3.4859,516,1.6645
3.4902,536,1.7290
3.4945,487,1.5710
3.4988,454,1.4645
3.5031,503,1.6226
3.5074,572,1.8452
3.5118,549,1.7710
3.5162,459,1.4806
3.5205,437,1.4097
3.5249,504,1.6258
3.5292,592,1.9097
3.5335,583,1.8806
3.5379,517,1.6677
3.5422,516,1.6645
3.5465,592,1.9097
3.5509,637,2.0548
3.5552,611,1.9710
3.5596,565,1.8226
3.5640,583,1.8806
3.5683,638,2.0581
3.5726,613,1.9774
3.5770,532,1.7161
3.5813,530,1.7097
3.5857,599,1.9323
3.5901,627,2.0226
3.5944,580,1.8710
3.5988,552,1.7806
3.6031,596,1.9226
3.6074,654,2.1097
3.6118,635,2.0484
3.6162,537,1.7323
3.6205,481,1.5516
3.6249,521,1.6806
3.6292,553,1.7839
3.6336,484,1.5613
3.6379,419,1.3516
3.6423,449,1.4484
3.6466,511,1.6484
3.6509,504,1.6258
3.6552,451,1.4548
3.6596,416,1.3419
3.6639,460,1.4839
3.6682,507,1.6355
3.6726,478,1.5419
3.6770,388,1.2516
3.6813,345,1.1129
3.6857,384,1.2387
3.6901,421,1.3581
3.6944,397,1.2806
3.6991,355,1.1452
3.7036,380,1.2258
3.7079,435,1.4032
3.7122,450,1.4516
3.7165,386,1.2452
3.7208,352,1.1355
3.7252,387,1.2484
3.7296,428,1.3806
3.7339,372,1.2000
3.7382,285,0.9194
3.7426,278,0.8968
3.7470,347,1.1194
3.7513,389,1.2548
3.7557,366,1.1806
3.7601,345,1.1129
3.7645,374,1.2065
3.7688,406,1.3097
3.7733,378,1.2194
3.7777,309,0.9968
3.7820,294,0.9484
3.7863,363,1.1710
3.7907,439,1.4161
3.7950,427,1.3774
3.7994,371,1.1968
3.8037,369,1.1903
3.8080,432,1.3935
3.8123,434,1.4000
3.8166,371,1.1968
3.8209,333,1.0742
3.8252,367,1.1839
3.8295,398,1.2839
3.8339,377,1.2161
3.8382,344,1.1097
3.8425,354,1.1419
3.8468,416,1.3419
3.8511,438,1.4129
3.8554,377,1.2161
3.8597,328,1.0581
3.8640,391,1.2613
3.8683,477,1.5387
3.8726,457,1.4742
3.8769,378,1.2194
3.8812,350,1.1290
3.8855,407,1.3129
3.8899,442,1.4258
3.8942,398,1.2839
3.8985,332,1.0710
3.9028,333,1.0742
3.9071,391,1.2613
3.9114,403,1.3000
3.9158,329,1.0613
3.9201,257,0.8290
3.9245,291,0.9387
3.9288,368,1.1871
3.9331,365,1.1774
3.9374,299,0.9645
3.9417,294,0.9484
3.9460,368,1.1871
3.9503,404,1.3032
3.9546,370,1.1935
3.9589,333,1.0742
3.9632,362,1.1677
3.9675,463,1.4935
3.9717,513,1.6548
3.9762,430,1.3871
3.9805,371,1.1968
3.9848,401,1.2935
3.9891,447,1.4419
3.9933,395,1.2742
3.9976,310,1.0000
4.0018,302,0.9742
4.0061,369,1.1903
4.0103,417,1.3452
4.0146,398,1.2839
4.0188,367,1.1839
4.0231,389,1.2548
4.0274,433,1.3968
4.0317,433,1.3968
4.0360,386,1.2452
4.0402,361,1.1645
4.0445,400,1.2903
4.0488,440,1.4194
4.0531,399,1.2871
4.0573,321,1.0355
4.0616,303,0.9774
4.0658,379,1.2226
4.0701,439,1.4161
4.0743,387,1.2484
4.0785,319,1.0290
4.0828,365,1.1774
4.0870,513,1.6548
4.0912,622,2.0065
4.0955,669,2.1581
4.0998,712,2.2968
4.1040,759,2.4484
4.1083,746,2.4065
4.1127,619,1.9968
4.1170,455,1.4677
4.1212,374,1.2065
4.1255,401,1.2935
4.1297,441,1.4226
4.1340,400,1.2903
4.1383,347,1.1194
4.1425,383,1.2355
4.1468,468,1.5097
4.1510,513,1.6548
4.1553,457,1.4742
4.1595,390,1.2581
4.1637,407,1.3129
4.1680,457,1.4742
4.1722,441,1.4226
4.1764,369,1.1903
4.1806,353,1.1387
4.1848,441,1.4226
4.1890,519,1.6742
4.1932,506,1.6323
4.1974,449,1.4484
4.2015,434,1.4000
4.2057,500,1.6129
4.2100,537,1.7323
4.2142,503,1.6226
4.2184,436,1.4065
4.2226,425,1.3710
4.2268,485,1.5645
4.2311,528,1.7032
4.2354,479,1.5452
4.2397,427,1.3774
4.2440,456,1.4710
4.2482,525,1.6935
4.2526,544,1.7548
4.2568,485,1.5645
4.2611,449,1.4484
4.2654,489,1.5774
4.2696,528,1.7032
4.2739,474,1.5290
4.2781,374,1.2065
4.2824,340,1.0968
4.2868,402,1.2968
4.2911,458,1.4774
4.2953,436,1.4065
4.2996,404,1.3032
4.3038,410,1.3226
4.3080,483,1.5581
4.3122,519,1.6742
4.3165,468,1.5097
4.3208,432,1.3935
4.3250,474,1.5290
4.3293,528,1.7032
4.3336,505,1.6290
4.3379,441,1.4226
4.3422,462,1.4903
4.3465,527,1.7000
4.3508,556,1.7935
4.3550,522,1.6839
4.3593,487,1.5710
4.3635,504,1.6258
4.3678,548,1.7677
4.3721,531,1.7129
4.3763,463,1.4935
4.3806,427,1.3774
4.3849,478,1.5419
4.3891,527,1.7000
4.3934,514,1.6581
4.3977,450,1.4516
4.4020,419,1.3516
4.4062,458,1.4774
4.4105,501,1.6161
4.4148,491,1.5839
4.4191,458,1.4774
4.4234,466,1.5032
4.4277,523,1.6871
4.4319,547,1.7645
4.4362,508,1.6387
4.4404,478,1.5419
4.4447,530,1.7097
4.4489,577,1.8613
4.4532,555,1.7903
4.4575,489,1.5774
4.4618,472,1.5226
4.4661,528,1.7032
4.4703,563,1.8161
4.4745,507,1.6355
4.4788,448,1.4452
4.4830,487,1.5710
4.4873,560,1.8065
4.4915,573,1.8484
4.4958,502,1.6194
4.5000,452,1.4581
4.5043,490,1.5806
4.5085,548,1.7677
4.5128,558,1.8000
4.5171,518,1.6710
4.5213,536,1.7290
4.5256,594,1.9161
4.5298,611,1.9710
4.5342,563,1.8161
4.5386,501,1.6161
4.5428,516,1.6645
4.5471,592,1.9097
4.5513,621,2.0032
4.5556,571,1.8419
4.5599,513,1.6548
4.5641,525,1.6935
4.5682,577,1.8613
4.5724,595,1.9194
4.5767,549,1.7710
4.5810,521,1.6806
4.5853,555,1.7903
4.5895,598,1.9290
4.5938,568,1.8323
4.5981,487,1.5710
4.6023,465,1.5000
4.6066,534,1.7226
4.6109,579,1.8677
4.6151,546,1.7613
4.6194,520,1.6774
4.6236,560,1.8065
4.6277,627,2.0226
4.6320,605,1.9516
4.6362,536,1.7290
4.6404,504,1.6258
4.6445,552,1.7806
4.6487,618,1.9935
4.6529,600,1.9355
4.6572,529,1.7065
4.6613,512,1.6516
4.6655,575,1.8548
4.6697,640,2.0645
4.6739,617,1.9903
4.6781,540,1.7419
4.6823,528,1.7032
4.6865,575,1.8548
4.6908,593,1.9129
4.6950,525,1.6935
4.6992,441,1.4226
4.7034,431,1.3903
4.7076,477,1.5387
4.7118,512,1.6516
4.7160,491,1.5839
4.7203,471,1.5194
4.7245,524,1.6903
4.7286,575,1.8548
4.7329,564,1.8194
4.7371,501,1.6161
4.7413,466,1.5032
4.7455,537,1.7323
4.7496,594,1.9161
4.7538,572,1.8452
4.7581,500,1.6129
4.7623,482,1.5548
4.7665,544,1.7548
4.7706,600,1.9355
4.7748,571,1.8419
4.7790,500,1.6129
4.7833,491,1.5839
4.7875,526,1.6968
4.7916,538,1.7355
4.7958,506,1.6323
4.8000,494,1.5935
4.8042,547,1.7645
4.8084,584,1.8839
4.8126,557,1.7968
4.8168,483,1.5581
4.8211,440,1.4194
4.8253,477,1.5387
4.8295,532,1.7161
4.8337,520,1.6774
4.8380,473,1.5258
4.8423,470,1.5161
4.8465,513,1.6548
4.8508,545,1.7581
4.8551,498,1.6065
4.8593,433,1.3968
4.8636,466,1.5032
4.8678,561,1.8097
4.8720,628,2.0258
4.8765,657,2.1194
4.8809,716,2.3097
4.8852,792,2.5548
4.8894,832,2.6839
4.8938,737,2.3774
4.8980,575,1.8548
4.9023,487,1.5710
4.9065,501,1.6161
4.9108,532,1.7161
4.9151,515,1.6613
4.9193,478,1.5419
4.9236,498,1.6065
4.9278,552,1.7806
4.9321,571,1.8419
4.9364,527,1.7000
4.9406,488,1.5742
4.9449,525,1.6935
4.9491,585,1.8871
4.9534,581,1.8742
4.9576,543,1.7516
4.9619,531,1.7129
4.9661,577,1.8613
4.9703,617,1.9903
4.9746,576,1.8581
4.9788,512,1.6516
4.9831,533,1.7194
4.9874,622,2.0065
4.9916,670,2.1613
4.9959,631,2.0355
5.0001,568,1.8323
5.0044,577,1.8613
5.0162,506,1.6323
5.0206,459,1.4806
5.0249,496,1.6000
5.0292,557,1.7968
5.0336,553,1.7839
5.0378,495,1.5968
5.0420,468,1.5097
5.0463,529,1.7065
5.0506,596,1.9226
5.0548,585,1.8871
5.0591,553,1.7839
5.0633,580,1.8710
5.0676,653,2.1065
5.0719,666,2.1484
5.0761,578,1.8645
5.0803,508,1.6387
5.0845,541,1.7452
5.0888,615,1.9839
5.0930,608,1.9613
5.0973,521,1.6806
5.1015,467,1.5065
5.1058,523,1.6871
5.1100,591,1.9065
5.1143,548,1.7677
5.1186,474,1.5290
5.1228,485,1.5645
5.1271,555,1.7903
5.1313,579,1.8677
5.1356,542,1.7484
5.1398,514,1.6581
5.1441,546,1.7613
5.1483,604,1.9484
5.1525,598,1.9290
5.1568,530,1.7097
5.1610,520,1.6774
5.1653,579,1.8677
5.1695,620,2.0000
5.1738,568,1.8323
5.1780,485,1.5645
5.1823,477,1.5387
5.1865,526,1.6968
5.1908,547,1.7645
5.1950,500,1.6129
5.1993,464,1.4968
5.2035,486,1.5677
5.2078,545,1.7581
5.2121,536,1.7290
5.2163,475,1.5323
5.2206,430,1.3871
5.2248,442,1.4258
5.2291,482,1.5548
5.2333,465,1.5000
5.2376,393,1.2677
5.2419,373,1.2032
5.2461,434,1.4000
5.2504,514,1.6581
5.2546,523,1.6871
5.2589,499,1.6097
5.2631,499,1.6097
5.2673,534,1.7226
5.2715,559,1.8032
5.2757,513,1.6548
5.2799,453,1.4613
5.2840,457,1.4742
5.2883,512,1.6516
5.2925,506,1.6323
5.2967,446,1.4387
5.3010,433,1.3968
5.3053,491,1.5839
5.3095,524,1.6903
5.3138,493,1.5903
5.3180,422,1.3613
5.3223,415,1.3387
5.3266,478,1.5419
5.3309,510,1.6452
5.3353,461,1.4871
5.3396,413,1.3323
5.3438,448,1.4452
5.3480,500,1.6129
5.3523,488,1.5742
5.3567,413,1.3323
5.3610,398,1.2839
5.3652,490,1.5806
5.3694,569,1.8355
5.3737,551,1.7774
5.3779,486,1.5677
5.3822,466,1.5032
5.3864,508,1.6387
5.3907,545,1.7581
5.3949,502,1.6194
5.3992,459,1.4806
5.4034,501,1.6161
5.4077,555,1.7903
5.4119,534,1.7226
5.4162,447,1.4419
5.4205,408,1.3161
5.4246,453,1.4613
5.4289,519,1.6742
5.4331,532,1.7161
5.4373,501,1.6161
5.4414,478,1.5419
5.4456,510,1.6452
5.4498,553,1.7839
5.4540,528,1.7032
5.4582,468,1.5097
5.4624,444,1.4323
5.4665,492,1.5871
5.4707,540,1.7419
5.4750,502,1.6194
5.4793,429,1.3839
5.4836,435,1.4032
5.4878,514,1.6581
5.4920,545,1.7581
5.4962,495,1.5968
5.5004,453,1.4613
5.5046,482,1.5548
5.5088,543,1.7516
5.5131,538,1.7355
5.5173,468,1.5097
5.5215,457,1.4742
5.5257,526,1.6968
5.5299,590,1.9032
5.5341,558,1.8000
5.5383,492,1.5871
5.5425,491,1.5839
5.5472,564,1.8194
5.5515,599,1.9323
5.5557,537,1.7323
5.5599,467,1.5065
5.5641,503,1.6226
5.5682,575,1.8548
5.5724,602,1.9419
5.5767,542,1.7484
5.5810,481,1.5516
5.5853,527,1.7000
5.5895,603,1.9452
5.5937,592,1.9097
5.5980,505,1.6290
5.6023,465,1.5000
5.6067,532,1.7161
5.6111,581,1.8742
5.6154,560,1.8065
5.6197,526,1.6968
5.6240,571,1.8419
5.6283,645,2.0806
5.6326,636,2.0516
5.6369,549,1.7710
5.6412,522,1.6839
5.6454,620,2.0000
5.6497,744,2.4000
5.6539,787,2.5387
5.6582,789,2.5452
5.6625,824,2.6581
5.6668,906,2.9226
5.6711,873,2.8161
5.6753,693,2.2355
5.6796,506,1.6323
5.6839,449,1.4484
5.6882,471,1.5194
5.6924,471,1.5194
5.6967,423,1.3645
5.7010,401,1.2935
5.7053,430,1.3871
5.7095,479,1.5452
5.7137,468,1.5097
5.7179,399,1.2871
5.7221,384,1.2387
5.7263,444,1.4323
5.7305,495,1.5968
5.7347,457,1.4742
5.7390,411,1.3258
5.7432,451,1.4548
5.7474,548,1.7677
5.7516,607,1.9581
5.7557,555,1.7903
5.7600,507,1.6355
5.7642,531,1.7129
5.7683,558,1.8000
5.7726,536,1.7290
5.7769,499,1.6097
5.7812,502,1.6194
5.7854,574,1.8516
5.7896,618,1.9935
5.7938,569,1.8355
5.7980,490,1.5806
5.8023,476,1.5355
5.8065,543,1.7516
5.8108,597,1.9258
5.8151,578,1.8645
5.8194,534,1.7226
5.8236,536,1.7290
5.8279,580,1.8710
5.8322,567,1.8290
5.8364,494,1.5935
5.8407,461,1.4871
5.8449,540,1.7419
5.8491,630,2.0323
5.8533,622,2.0065
5.8575,543,1.7516
5.8617,491,1.5839
5.8659,529,1.7065
5.8701,604,1.9484
5.8742,619,1.9968
5.8784,570,1.8387
5.8826,538,1.7355
5.8868,573,1.8484
5.8910,585,1.8871
5.8952,541,1.7452
5.8994,494,1.5935
5.9036,534,1.7226
5.9078,614,1.9806
5.9120,636,2.0516
5.9162,581,1.8742
5.9204,554,1.7871
5.9246,592,1.9097
5.9288,649,2.0935
5.9330,644,2.0774
5.9372,563,1.8161
5.9414,529,1.7065
5.9456,579,1.8677
5.9498,615,1.9839
5.9540,565,1.8226
5.9582,496,1.6000
5.9623,496,1.6000
5.9666,547,1.7645
5.9707,567,1.8290
5.9749,521,1.6806
5.9791,450,1.4516
5.9833,460,1.4839
5.9875,527,1.7000
5.9917,532,1.7161
5.9959,475,1.5323
6.0001,433,1.3968
6.0043,435,1.4032
6.0085,459,1.4806
6.0127,439,1.4161
6.0169,378,1.2194
6.0211,356,1.1484
6.0253,418,1.3484
6.0295,478,1.5419
6.0337,463,1.4935
6.0379,396,1.2774
6.0421,369,1.1903
6.0463,430,1.3871
6.0505,486,1.5677
6.0547,471,1.5194
6.0590,413,1.3323
6.0632,420,1.3548
6.0674,492,1.5871
6.0716,522,1.6839
6.0758,472,1.5226
6.0800,420,1.3548
6.0841,447,1.4419
6.0884,506,1.6323
6.0926,508,1.6387
6.0969,455,1.4677
6.1013,430,1.3871
6.1055,499,1.6097
6.1098,568,1.8323
6.1141,552,1.7806
6.1184,493,1.5903
6.1226,480,1.5484
6.1269,531,1.7129
6.1311,539,1.7387
6.1355,448,1.4452
6.1397,374,1.2065
6.1440,392,1.2645
6.1482,460,1.4839
6.1524,493,1.5903
6.1567,482,1.5548
6.1609,463,1.4935
6.1651,479,1.5452
6.1693,528,1.7032
6.1735,528,1.7032
6.1777,485,1.5645
6.1818,463,1.4935
6.1860,496,1.6000
6.1902,512,1.6516
6.1944,468,1.5097
6.1987,426,1.3742
6.2029,458,1.4774
6.2071,542,1.7484
6.2114,579,1.8677
6.2157,514,1.6581
6.2201,461,1.4871
6.2245,473,1.5258
6.2289,506,1.6323
6.2333,504,1.6258
6.2376,450,1.4516
6.2420,418,1.3484
6.2464,464,1.4968
6.2510,496,1.6000
6.2554,458,1.4774
6.2598,424,1.3677
6.2642,465,1.5000
6.2685,547,1.7645
6.2729,571,1.8419
6.2773,510,1.6452
6.2817,447,1.4419
6.2860,435,1.4032
6.2904,475,1.5323
6.2947,465,1.5000
6.2991,430,1.3871
6.3034,445,1.4355
6.3077,504,1.6258
6.3122,538,1.7355
6.3165,489,1.5774
6.3209,454,1.4645
6.3252,509,1.6419
6.3295,556,1.7935
6.3338,522,1.6839
6.3382,435,1.4032
6.3426,407,1.3129
6.3470,472,1.5226
6.3513,520,1.6774
6.3556,469,1.5129
6.3599,403,1.3000
6.3643,421,1.3581
6.3686,486,1.5677
6.3729,480,1.5484
6.3773,412,1.3290
6.3817,388,1.2516
6.3860,447,1.4419
6.3903,458,1.4774
6.3947,387,1.2484
6.3991,307,0.9903
6.4034,319,1.0290
6.4078,419,1.3516
6.4121,490,1.5806
6.4164,503,1.6226
6.4207,559,1.8032
6.4251,697,2.2484
6.4294,798,2.5742
6.4337,741,2.3903
6.4381,589,1.9000
6.4424,512,1.6516
6.4468,504,1.6258
6.4512,469,1.5129
6.4555,408,1.3161
6.4598,372,1.2000
6.4642,407,1.3129
6.4685,454,1.4645
6.4728,447,1.4419
6.4771,396,1.2774
6.4815,384,1.2387
6.4858,444,1.4323
6.4902,506,1.6323
6.4945,478,1.5419
6.4988,409,1.3194
6.5032,427,1.3774
6.5075,496,1.6000
6.5121,520,1.6774
6.5164,493,1.5903
6.5208,453,1.4613
6.5252,482,1.5548
6.5295,526,1.6968
6.5339,498,1.6065
6.5382,427,1.3774
6.5426,411,1.3258
6.5469,468,1.5097
6.5513,498,1.6065
6.5556,425,1.3710
6.5600,344,1.1097
6.5643,376,1.2129
6.5687,463,1.4935
6.5730,491,1.5839
6.5773,445,1.4355
6.5817,431,1.3903
6.5860,492,1.5871
6.5904,534,1.7226
6.5949,497,1.6032
6.5992,454,1.4645
6.6036,479,1.5452
6.6079,559,1.8032
6.6125,580,1.8710
6.6170,525,1.6935
6.6213,500,1.6129
6.6257,555,1.7903
6.6301,604,1.9484
6.6344,569,1.8355
6.6387,504,1.6258
6.6430,519,1.6742
6.6473,582,1.8774
6.6517,591,1.9065
6.6561,550,1.7742
6.6605,527,1.7000
6.6648,582,1.8774
6.6692,646,2.0839
6.6735,632,2.0387
6.6778,569,1.8355
6.6822,556,1.7935
6.6866,611,1.9710
6.6909,654,2.1097
6.6952,601,1.9387
6.6996,525,1.6935
6.7040,539,1.7387
6.7083,598,1.9290
6.7127,596,1.9226
6.7171,523,1.6871
6.7214,492,1.5871
6.7258,559,1.8032
6.7301,632,2.0387
6.7345,609,1.9645
6.7388,555,1.7903
6.7431,580,1.8710
6.7474,640,2.0645
6.7517,611,1.9710
6.7560,514,1.6581
6.7604,465,1.5000
6.7647,479,1.5452
6.7690,523,1.6871
6.7733,521,1.6806
6.7776,488,1.5742
6.7819,480,1.5484
6.7862,539,1.7387
6.7905,593,1.9129
6.7948,556,1.7935
6.7991,457,1.4742
6.8034,431,1.3903
6.8077,483,1.5581
6.8121,504,1.6258
6.8164,457,1.4742
6.8207,432,1.3935
6.8250,484,1.5613
6.8293,534,1.7226
6.8336,515,1.6613
6.8379,448,1.4452
6.8422,416,1.3419
6.8466,466,1.5032
6.8509,530,1.7097
6.8552,511,1.6484
6.8595,458,1.4774
6.8638,467,1.5065
6.8681,502,1.6194
6.8724,497,1.6032
6.8767,432,1.3935
6.8810,425,1.3710
6.8853,488,1.5742
6.8896,521,1.6806
6.8939,487,1.5710
6.8982,415,1.3387
6.9026,386,1.2452
6.9069,432,1.3935
6.9112,475,1.5323
6.9155,452,1.4581
6.9198,410,1.3226
6.9242,418,1.3484
6.9286,481,1.5516
6.9329,502,1.6194
6.9372,439,1.4161
6.9415,391,1.2613
6.9458,423,1.3645
6.9501,459,1.4806
6.9544,413,1.3323
6.9587,343,1.1065
6.9630,341,1.1000
6.9673,407,1.3129
6.9715,431,1.3903
6.9757,388,1.2516
6.9800,366,1.1806
6.9842,425,1.3710
6.9885,502,1.6194
6.9927,500,1.6129
6.9970,429,1.3839
7.0012,382,1.2323
7.0054,415,1.3387
7.0097,469,1.5129
7.0139,464,1.4968
7.0181,412,1.3290
7.0223,405,1.3065
7.0265,499,1.6097
7.0307,553,1.7839
7.0349,508,1.6387
7.0391,431,1.3903
7.0433,421,1.3581
7.0475,477,1.5387
7.0517,497,1.6032
7.0559,436,1.4065
7.0601,383,1.2355
7.0642,421,1.3581
7.0684,459,1.4806
7.0726,460,1.4839
7.0768,425,1.3710
7.0811,405,1.3065
7.0853,444,1.4323
7.0896,484,1.5613
7.0939,458,1.4774
7.0982,369,1.1903
7.1026,322,1.0387
7.1068,388,1.2516
7.1111,460,1.4839
7.1153,427,1.3774
7.1195,377,1.2161
7.1237,378,1.2194
7.1279,455,1.4677
7.1322,500,1.6129
7.1364,494,1.5935
7.1407,516,1.6645
7.1449,651,2.1000
7.1492,841,2.7129
7.1535,910,2.9355
7.1578,806,2.6000
7.1621,676,2.1806
7.1664,627,2.0226
7.1706,606,1.9548
7.1749,555,1.7903
7.1791,498,1.6065
7.1834,501,1.6161
7.1876,522,1.6839
7.1919,508,1.6387
7.1961,445,1.4355
7.2004,396,1.2774
7.2047,446,1.4387
7.2089,482,1.5548
7.2131,446,1.4387
7.2174,377,1.2161
7.2215,360,1.1613
7.2258,438,1.4129
7.2300,516,1.6645
7.2341,509,1.6419
7.2384,446,1.4387
7.2426,433,1.3968
7.2467,494,1.5935
7.2509,556,1.7935
7.2551,536,1.7290
7.2594,475,1.5323
7.2636,497,1.6032
7.2677,552,1.7806
7.2719,571,1.8419
7.2762,501,1.6161
7.2805,429,1.3839
7.2847,452,1.4581
7.2889,513,1.6548
7.2931,483,1.5581
7.2973,414,1.3355
7.3016,405,1.3065
7.3058,478,1.5419
7.3101,538,1.7355
7.3144,530,1.7097
7.3188,482,1.5548
7.3231,472,1.5226
7.3273,523,1.6871
7.3316,552,1.7806
7.3359,523,1.6871
7.3402,506,1.6323
7.3444,527,1.7000
7.3487,569,1.8355
7.3529,566,1.8258
7.3573,492,1.5871
7.3615,436,1.4065
7.3656,486,1.5677
7.3698,568,1.8323
7.3740,574,1.8516
7.3782,497,1.6032
7.3824,471,1.5194
7.3865,527,1.7000
7.3907,580,1.8710
7.3953,555,1.7903
7.3996,488,1.5742
7.4038,503,1.6226
7.4082,569,1.8355
7.4125,582,1.8774
7.4168,521,1.6806
7.4211,508,1.6387
7.4253,578,1.8645
7.4296,638,2.0581
7.4340,614,1.9806
7.4382,551,1.7774
7.4425,519,1.6742
7.4468,550,1.7742
7.4510,566,1.8258
7.4553,514,1.6581
7.4596,460,1.4839
7.4639,504,1.6258
7.4680,607,1.9581
7.4722,638,2.0581
7.4764,556,1.7935
7.4806,475,1.5323
7.4848,490,1.5806
7.4889,552,1.7806
7.4931,584,1.8839
7.4973,573,1.8484
7.5015,574,1.8516
7.5057,622,2.0065
7.5099,661,2.1323
7.5141,636,2.0516
7.5182,577,1.8613
7.5225,568,1.8323
7.5267,602,1.9419
7.5309,628,2.0258
7.5351,593,1.9129
7.5393,508,1.6387
7.5435,500,1.6129
7.5477,567,1.8290
7.5520,599,1.9323
7.5563,548,1.7677
7.5606,506,1.6323
7.5649,535,1.7258
7.5692,580,1.8710
7.5735,571,1.8419
7.5778,520,1.6774
7.5822,520,1.6774
7.5865,579,1.8677
7.5908,600,1.9355
7.5951,544,1.7548
7.5995,497,1.6032
7.6038,522,1.6839
7.6081,592,1.9097
7.6123,606,1.9548
7.6166,537,1.7323
7.6209,475,1.5323
7.6252,489,1.5774
7.6295,536,1.7290
7.6338,544,1.7548
7.6381,488,1.5742
7.6424,461,1.4871
7.6467,514,1.6581
7.6510,568,1.8323
7.6553,520,1.6774
7.6596,469,1.5129
7.6639,507,1.6355
7.6681,561,1.8097
7.6724,562,1.8129
7.6767,498,1.6065
7.6809,481,1.5516
7.6852,520,1.6774
7.6895,576,1.8581
7.6937,570,1.8387
7.6979,520,1.6774
7.7021,505,1.6290
7.7064,544,1.7548
7.7107,575,1.8548
7.7150,516,1.6645
7.7193,448,1.4452
7.7236,463,1.4935
7.7278,550,1.7742
7.7321,602,1.9419
7.7363,540,1.7419
7.7405,470,1.5161
7.7448,498,1.6065
7.7491,579,1.8677
7.7533,605,1.9516
7.7575,545,1.7581
7.7618,502,1.6194
7.7660,552,1.7806
7.7703,609,1.9645
7.7745,575,1.8548
7.7788,513,1.6548
7.7830,502,1.6194
7.7873,566,1.8258
7.7916,604,1.9484
7.7958,562,1.8129
7.8000,500,1.6129
7.8043,515,1.6613
7.8086,555,1.7903
7.8128,556,1.7935
7.8171,464,1.4968
7.8213,414,1.3355
7.8256,479,1.5452
7.8298,552,1.7806
7.8341,557,1.7968
7.8383,491,1.5839
7.8425,453,1.4613
7.8468,513,1.6548
7.8510,560,1.8065
7.8553,514,1.6581
7.8596,456,1.4710
7.8639,477,1.5387
7.8682,537,1.7323
7.8724,550,1.7742
7.8766,497,1.6032
7.8808,462,1.4903
7.8850,488,1.5742
7.8893,515,1.6613
7.8934,484,1.5613
7.8976,409,1.3194
7.9018,379,1.2226
7.9060,472,1.5226
7.9103,577,1.8613
7.9145,612,1.9742
7.9186,628,2.0258
7.9228,700,2.2581
7.9270,825,2.6613
7.9312,863,2.7839
7.9354,740,2.3871
7.9396,567,1.8290
7.9438,497,1.6032
7.9480,522,1.6839
7.9522,522,1.6839
7.9564,481,1.5516
7.9606,447,1.4419
7.9648,474,1.5290
7.9690,532,1.7161
7.9732,527,1.7000
7.9774,455,1.4677
7.9816,400,1.2903
7.9858,440,1.4194
7.9899,517,1.6677
7.9942,523,1.6871
7.9984,488,1.5742
8.0026,504,1.6258
8.0068,576,1.8581
8.0110,614,1.9806
8.0152,568,1.8323
8.0194,506,1.6323
8.0236,505,1.6290
8.0278,555,1.7903
8.0321,553,1.7839
8.0362,483,1.5581
8.0404,427,1.3774
8.0446,446,1.4387
8.0488,507,1.6355
8.0530,497,1.6032
8.0572,413,1.3323
8.0614,323,1.0419
8.0657,344,1.1097
8.0699,424,1.3677
8.0741,444,1.4323
8.0782,402,1.2968
8.0824,402,1.2968
8.0866,462,1.4903
8.0908,504,1.6258
8.0950,468,1.5097
8.0991,429,1.3839
8.1033,462,1.4903
8.1075,540,1.7419
8.1117,583,1.8806
8.1159,536,1.7290
8.1201,462,1.4903
8.1243,478,1.5419
8.1285,564,1.8194
8.1327,602,1.9419
8.1369,555,1.7903
8.1411,520,1.6774
8.1453,552,1.7806
8.1495,599,1.9323
8.1537,579,1.8677
8.1579,489,1.5774
8.1621,446,1.4387
8.1663,513,1.6548
8.1704,583,1.8806
8.1747,564,1.8194
8.1790,502,1.6194
8.1833,515,1.6613
8.1875,591,1.9065
8.1917,624,2.0129
8.1959,568,1.8323
8.2001,497,1.6032
8.2043,510,1.6452
8.2085,564,1.8194
8.2127,565,1.8226
8.2169,492,1.5871
8.2211,448,1.4452
8.2253,486,1.5677
8.2295,578,1.8645
8.2337,599,1.9323
8.2380,518,1.6710
8.2421,470,1.5161
8.2463,523,1.6871
8.2505,578,1.8645
8.2547,532,1.7161
8.2589,447,1.4419
8.2631,421,1.3581
8.2673,478,1.5419
8.2714,548,1.7677
8.2756,544,1.7548
8.2799,493,1.5903
8.2841,478,1.5419
8.2882,529,1.7065
8.2924,568,1.8323
8.2966,512,1.6516
8.3008,461,1.4871
8.3050,478,1.5419
8.3092,525,1.6935
8.3134,538,1.7355
8.3176,514,1.6581
8.3219,502,1.6194
8.3261,539,1.7387
8.3304,560,1.8065
8.3347,521,1.6806
8.3390,469,1.5129
8.3434,496,1.6000
8.3477,569,1.8355
8.3520,602,1.9419
8.3563,566,1.8258
8.3605,533,1.7194
8.3648,555,1.7903
8.3690,599,1.9323
8.3732,579,1.8677
8.3775,503,1.6226
8.3819,453,1.4613
8.3863,504,1.6258
8.3906,551,1.7774
8.3948,525,1.6935
8.3991,455,1.4677
8.4033,450,1.4516
8.4076,522,1.6839
8.4119,581,1.8742
8.4162,547,1.7645
8.4205,503,1.6226
8.4248,530,1.7097
8.4291,582,1.8774
8.4333,575,1.8548
8.4375,517,1.6677
8.4418,510,1.6452
8.4461,582,1.8774
8.4504,644,2.0774
8.4546,622,2.0065
8.4589,553,1.7839
8.4631,546,1.7613
8.4674,595,1.9194
8.4716,607,1.9581
8.4759,555,1.7903
8.4802,494,1.5935
8.4845,518,1.6710
8.4887,571,1.8419
8.4929,570,1.8387
8.4970,510,1.6452
8.5012,451,1.4548
8.5054,453,1.4613
8.5096,491,1.5839
8.5138,472,1.5226
8.5180,414,1.3355
8.5223,369,1.1903
8.5265,416,1.3419
8.5307,490,1.5806
8.5349,477,1.5387
8.5392,419,1.3516
8.5434,414,1.3355
8.5477,477,1.5387
8.5520,507,1.6355
8.5563,450,1.4516
8.5605,404,1.3032
8.5648,432,1.3935
8.5690,524,1.6903
8.5732,576,1.8581
8.5775,526,1.6968
8.5818,486,1.5677
8.5861,523,1.6871
8.5903,572,1.8452
8.5945,551,1.7774
8.5988,488,1.5742
8.6030,479,1.5452
8.6073,541,1.7452
8.6117,586,1.8903
8.6159,522,1.6839
8.6201,456,1.4710
8.6244,488,1.5742
8.6285,567,1.8290
8.6328,570,1.8387
8.6369,492,1.5871
8.6411,424,1.3677
8.6453,442,1.4258
8.6495,503,1.6226
8.6537,505,1.6290
8.6579,452,1.4581
8.6621,427,1.3774
8.6663,465,1.5000
8.6705,515,1.6613
8.6748,493,1.5903
8.6791,417,1.3452
8.6833,390,1.2581
8.6875,424,1.3677
8.6917,450,1.4516
8.6959,438,1.4129
8.7000,452,1.4581
8.7042,553,1.7839
8.7084,714,2.3032
8.7127,797,2.5710
8.7169,714,2.3032
8.7210,587,1.8935
8.7253,516,1.6645
8.7295,490,1.5806
8.7337,455,1.4677
8.7379,416,1.3419
8.7421,398,1.2839
8.7463,433,1.3968
8.7505,463,1.4935
8.7547,416,1.3419
8.7588,330,1.0645
8.7631,320,1.0323
8.7673,404,1.3032
8.7715,471,1.5194
8.7758,449,1.4484
8.7800,406,1.3097
8.7843,411,1.3258
8.7885,477,1.5387
8.7928,512,1.6516
8.7971,464,1.4968
8.8014,419,1.3516
8.8057,443,1.4290
8.8100,487,1.5710
8.8142,464,1.4968
8.8185,401,1.2935
8.8228,395,1.2742
8.8271,437,1.4097
8.8314,453,1.4613
8.8357,405,1.3065
8.8401,360,1.1613
8.8443,385,1.2419
8.8486,436,1.4065
8.8529,445,1.4355
8.8572,375,1.2097
8.8615,337,1.0871
8.8657,377,1.2161
8.8700,436,1.4065
8.8742,434,1.4000
8.8785,403,1.3000
8.8828,423,1.3645
8.8870,487,1.5710
8.8913,531,1.7129
8.8955,499,1.6097
8.8998,437,1.4097
8.9041,443,1.4290
8.9084,506,1.6323
8.9127,520,1.6774
8.9171,444,1.4323
8.9215,416,1.3419
8.9259,495,1.5968
8.9303,588,1.8968
8.9347,571,1.8419
8.9391,496,1.6000
8.9435,480,1.5484
8.9479,533,1.7194
8.9522,573,1.8484
8.9566,551,1.7774
8.9611,528,1.7032
8.9655,587,1.8935
8.9700,658,2.1226
8.9745,658,2.1226
8.9788,590,1.9032
8.9832,582,1.8774
8.9876,634,2.0452
8.9920,647,2.0871
8.9963,566,1.8258
9.0007,491,1.5839
9.0050,515,1.6613
9.0093,595,1.9194
9.0137,590,1.9032
9.0180,518,1.6710
9.0224,486,1.5677
9.0268,523,1.6871
9.0312,542,1.7484
9.0355,484,1.5613
9.0399,431,1.3903
9.0442,456,1.4710
9.0486,516,1.6645
9.0529,529,1.7065
9.0573,465,1.5000
9.0616,431,1.3903
9.0660,464,1.4968
9.0703,510,1.6452
9.0745,513,1.6548
9.0789,478,1.5419
9.0832,477,1.5387
9.0876,527,1.7000
9.0919,555,1.7903
9.0962,491,1.5839
9.1005,447,1.4419
9.1048,478,1.5419
9.1091,514,1.6581
9.1135,470,1.5161
9.1178,368,1.1871
9.1222,334,1.0774
9.1265,412,1.3290
9.1309,484,1.5613
9.1353,500,1.6129
9.1397,488,1.5742
9.1440,526,1.6968
9.1483,603,1.9452
9.1526,626,2.0194
9.1569,550,1.7742
9.1612,478,1.5419
9.1656,481,1.5516
9.1699,533,1.7194
9.1743,530,1.7097
9.1786,478,1.5419
9.1829,475,1.5323
9.1873,537,1.7323
9.1916,545,1.7581
9.1959,469,1.5129
9.2003,406,1.3097
9.2046,430,1.3871
9.2089,500,1.6129
9.2132,518,1.6710
9.2176,447,1.4419
9.2219,398,1.2839
9.2263,457,1.4742
9.2307,528,1.7032
9.2356,485,1.5645
9.2400,425,1.3710
9.2443,461,1.4871
9.2487,551,1.7774
9.2530,554,1.7871
9.2574,484,1.5613
9.2617,465,1.5000
9.2660,517,1.6677
9.2704,558,1.8000
9.2748,518,1.6710
9.2792,472,1.5226
9.2835,486,1.5677
9.2879,557,1.7968
9.2922,592,1.9097
9.2965,542,1.7484
9.3009,483,1.5581
9.3052,521,1.6806
9.3096,583,1.8806
9.3139,579,1.8677
9.3183,504,1.6258
9.3226,474,1.5290
9.3269,546,1.7613
9.3313,587,1.8935
9.3357,509,1.6419
9.3400,411,1.3258
9.3444,431,1.3903
9.3488,516,1.6645
9.3531,535,1.7258
9.3574,465,1.5000
9.3617,417,1.3452
9.3660,468,1.5097
9.3704,532,1.7161
9.3747,494,1.5935
9.3791,415,1.3387
9.3835,403,1.3000
9.3879,465,1.5000
9.3922,467,1.5065
9.3966,396,1.2774
9.4009,352,1.1355
9.4052,387,1.2484
9.4095,440,1.4194
9.4139,412,1.3290
9.4182,345,1.1129
9.4227,377,1.2161
9.4270,524,1.6903
9.4314,652,2.1032
9.4357,699,2.2548
9.4401,705,2.2742
9.4444,732,2.3613
9.4488,715,2.3065
9.4531,595,1.9194
9.4575,445,1.4355
9.4618,371,1.1968
9.4662,415,1.3387
9.4706,478,1.5419
9.4750,465,1.5000
9.4793,412,1.3290
9.4837,430,1.3871
9.4880,515,1.6613
9.4924,550,1.7742
9.4968,499,1.6097
9.5011,446,1.4387
9.5055,466,1.5032
9.5098,511,1.6484
9.5142,487,1.5710
9.5185,414,1.3355
9.5228,395,1.2742
9.5271,480,1.5484
9.5314,561,1.8097
9.5357,525,1.6935
9.5401,449,1.4484
9.5443,461,1.4871
9.5486,531,1.7129
9.5530,547,1.7645
9.5573,504,1.6258
9.5616,467,1.5065
9.5659,504,1.6258
9.5702,559,1.8032
9.5745,567,1.8290
9.5788,493,1.5903
9.5831,452,1.4581
9.5874,506,1.6323
9.5918,536,1.7290
9.5961,498,1.6065
9.6004,457,1.4742
9.6047,492,1.5871
9.6091,551,1.7774
9.6134,544,1.7548
9.6177,481,1.5516
9.6220,467,1.5065
9.6263,530,1.7097
9.6305,593,1.9129
9.6348,576,1.8581
9.6392,535,1.7258
9.6434,566,1.8258
9.6477,655,2.1129
9.6520,700,2.2581
9.6564,619,1.9968
9.6607,514,1.6581
9.6649,516,1.6645
9.6692,584,1.8839
9.6736,598,1.9290
9.6779,556,1.7935
9.6822,534,1.7226
9.6865,598,1.9290
9.6908,660,2.1290
9.6951,641,2.0677
9.6994,558,1.8000
9.7037,539,1.7387
9.7080,601,1.9387
9.7123,639,2.0613
9.7167,579,1.8677
9.7210,521,1.6806
9.7253,565,1.8226
9.7296,641,2.0677
9.7339,651,2.1000
9.7382,578,1.8645
9.7426,521,1.6806
9.7469,542,1.7484
9.7512,555,1.7903
9.7555,514,1.6581
9.7598,471,1.5194
9.7641,470,1.5161
9.7684,516,1.6645
9.7728,527,1.7000
9.7771,489,1.5774
9.7814,455,1.4677
9.7856,496,1.6000
9.7898,549,1.7710
9.7941,528,1.7032
9.7983,465,1.5000
9.8026,445,1.4355
9.8068,484,1.5613
9.8110,521,1.6806
9.8153,495,1.5968
9.8196,458,1.4774
9.8238,471,1.5194
9.8280,527,1.7000
9.8322,565,1.8226
9.8365,515,1.6613
9.8408,454,1.4645
9.8451,478,1.5419
9.8494,551,1.7774
9.8536,579,1.8677
9.8579,516,1.6645
9.8621,485,1.5645
9.8663,535,1.7258
9.8707,588,1.8968
9.8751,549,1.7710
9.8793,483,1.5581
9.8836,484,1.5613
9.8878,561,1.8097
9.8921,609,1.9645
9.8963,558,1.8000
9.9006,491,1.5839
9.9048,502,1.6194
9.9090,587,1.8935
9.9133,600,1.9355
9.9176,525,1.6935
9.9218,460,1.4839
9.9260,474,1.5290
9.9303,524,1.6903
9.9346,512,1.6516
9.9389,453,1.4613
9.9431,450,1.4516
9.9473,496,1.6000
9.9515,523,1.6871
9.9557,465,1.5000
9.9599,389,1.2548
9.9641,405,1.3065
9.9683,484,1.5613
9.9726,535,1.7258
9.9768,492,1.5871
9.9811,458,1.4774
9.9854,465,1.5000
9.9896,506,1.6323
9.9938,492,1.5871
9.9980,433,1.3968
10.0022,422,1.3613
10.0068,464,1.4968
10.0190,483,1.5581
10.0234,494,1.5935
10.0277,555,1.7903
10.0319,591,1.9065
10.0362,546,1.7613
10.0404,488,1.5742
10.0446,497,1.6032
10.0488,550,1.7742
10.0530,559,1.8032
10.0572,496,1.6000
10.0614,444,1.4323
10.0656,461,1.4871
10.0697,521,1.6806
10.0739,519,1.6742
10.0782,463,1.4935
10.0824,442,1.4258
10.0865,482,1.5548
10.0907,544,1.7548
10.0949,531,1.7129
10.0991,466,1.5032
10.1033,429,1.3839
10.1075,467,1.5065
10.1117,518,1.6710
10.1160,497,1.6032
10.1203,446,1.4387
10.1245,454,1.4645
10.1287,505,1.6290
10.1329,521,1.6806
10.1371,473,1.5258
10.1413,427,1.3774
10.1455,450,1.4516
10.1497,542,1.7484
10.1538,592,1.9097
10.1580,599,1.9323
10.1622,664,2.1419
10.1664,794,2.5613
10.1706,909,2.9323
10.1748,861,2.7774
10.1791,678,2.1871
10.1833,527,1.7000
10.1875,489,1.5774
10.1917,500,1.6129
10.1959,471,1.5194
10.2001,425,1.3710
10.2043,440,1.4194
10.2085,505,1.6290
10.2127,526,1.6968
10.2169,466,1.5032
10.2211,410,1.3226
10.2253,437,1.4097
10.2294,517,1.6677
10.2336,542,1.7484
10.2378,477,1.5387
10.2420,430,1.3871
10.2462,466,1.5032
10.2504,518,1.6710
10.2546,512,1.6516
10.2588,450,1.4516
10.2630,417,1.3452
10.2672,462,1.4903
10.2714,505,1.6290
10.2758,451,1.4548
10.2800,383,1.2355
10.2843,395,1.2742
10.2885,449,1.4484
10.2928,467,1.5065
10.2970,434,1.4000
10.3012,401,1.2935
10.3054,430,1.3871
10.3096,460,1.4839
10.3138,443,1.4290
10.3180,371,1.1968
10.3224,349,1.1258
10.3267,423,1.3645
10.3310,484,1.5613
10.3353,450,1.4516
10.3396,391,1.2613
10.3439,401,1.2935
10.3482,475,1.5323
10.3526,501,1.6161
10.3568,468,1.5097
10.3610,454,1.4645
10.3653,509,1.6419
10.3695,589,1.9000
10.3738,605,1.9516
10.3780,543,1.7516
10.3822,499,1.6097
10.3864,541,1.7452
10.3906,593,1.9129
10.3948,564,1.8194
10.3989,493,1.5903
10.4031,486,1.5677
10.4073,573,1.8484
10.4115,636,2.0516
10.4157,624,2.0129
10.4199,572,1.8452
10.4241,553,1.7839
10.4284,577,1.8613
10.4325,580,1.8710
10.4369,522,1.6839
10.4411,474,1.5290
10.4453,520,1.6774
10.4497,596,1.9226
10.4539,584,1.8839
10.4582,519,1.6742
10.4626,482,1.5548
10.4669,544,1.7548
10.4712,594,1.9161
10.4755,546,1.7613
10.4798,467,1.5065
10.4841,476,1.5355
10.4883,552,1.7806
10.4926,569,1.8355
10.4969,487,1.5710
10.5012,432,1.3935
10.5055,455,1.4677
10.5099,506,1.6323
10.5142,513,1.6548
10.5185,473,1.5258
10.5227,466,1.5032
10.5270,526,1.6968
10.5313,571,1.8419
10.5356,524,1.6903
10.5399,457,1.4742
10.5442,463,1.4935
10.5484,507,1.6355
10.5527,508,1.6387
10.5570,449,1.4484
10.5613,424,1.3677
10.5655,466,1.5032
10.5698,539,1.7387
10.5740,522,1.6839
10.5783,456,1.4710
10.5826,442,1.4258
10.5868,492,1.5871
10.5911,537,1.7323
10.5955,504,1.6258
10.5998,439,1.4161
10.6040,451,1.4548
10.6083,530,1.7097
10.6125,573,1.8484
10.6168,516,1.6645
10.6210,454,1.4645
10.6253,472,1.5226
10.6296,538,1.7355
10.6339,532,1.7161
10.6382,442,1.4258
10.6424,398,1.2839
10.6467,449,1.4484
10.6510,496,1.6000
10.6553,468,1.5097
10.6595,401,1.2935
10.6638,396,1.2774
10.6680,475,1.5323
10.6722,513,1.6548
10.6765,463,1.4935
10.6807,396,1.2774
10.6850,417,1.3452
10.6892,481,1.5516
10.6934,507,1.6355
10.6977,464,1.4968
10.7019,436,1.4065
10.7062,487,1.5710
10.7105,548,1.7677
10.7148,526,1.6968
10.7191,467,1.5065
10.7233,458,1.4774
10.7277,511,1.6484
10.7319,563,1.8161
10.7362,514,1.6581
10.7405,439,1.4161
10.7447,445,1.4355
10.7490,486,1.5677
10.7533,491,1.5839
10.7576,436,1.4065
10.7619,416,1.3419
10.7661,500,1.6129
10.7703,583,1.8806
10.7746,553,1.7839
10.7789,455,1.4677
10.7832,438,1.4129
10.7876,527,1.7000
10.7919,576,1.8581
10.7961,533,1.7194
10.8003,486,1.5677
10.8045,522,1.6839
10.8088,601,1.9387
10.8131,598,1.9290
10.8174,495,1.5968
10.8216,426,1.3742
10.8258,459,1.4806
10.8301,510,1.6452
10.8343,496,1.6000
10.8386,434,1.4000
10.8429,411,1.3258
10.8471,479,1.5452
10.8513,536,1.7290
10.8555,504,1.6258
10.8597,440,1.4194
10.8639,418,1.3484
10.8680,447,1.4419
10.8723,485,1.5645
10.8767,454,1.4645
10.8810,411,1.3258
10.8853,456,1.4710
10.8895,524,1.6903
10.8937,536,1.7290
10.8979,468,1.5097
10.9021,421,1.3581
10.9064,452,1.4581
10.9106,519,1.6742
10.9148,558,1.8000
10.9190,558,1.8000
10.9232,635,2.0484
10.9275,787,2.5387
10.9316,874,2.8194
10.9358,799,2.5774
10.9401,630,2.0323
10.9443,502,1.6194
10.9484,485,1.5645
10.9526,475,1.5323
10.9569,410,1.3226
10.9611,366,1.1806
10.9653,421,1.3581
10.9694,509,1.6419
10.9736,525,1.6935
10.9779,455,1.4677
10.9821,409,1.3194
10.9863,436,1.4065
10.9905,486,1.5677
10.9946,485,1.5645
10.9988,427,1.3774
11.0030,416,1.3419
11.0072,486,1.5677
11.0114,561,1.8097
11.0156,553,1.7839
11.0198,481,1.5516
11.0240,468,1.5097
11.0282,531,1.7129
11.0329,542,1.7484
11.0372,491,1.5839
11.0414,450,1.4516
11.0456,480,1.5484
11.0498,523,1.6871
11.0539,520,1.6774
11.0581,458,1.4774
11.0623,428,1.3806
11.0666,506,1.6323
11.0708,593,1.9129
11.0750,584,1.8839
11.0792,503,1.6226
11.0834,454,1.4645
11.0876,481,1.5516
11.0918,492,1.5871
11.0961,448,1.4452
11.1003,399,1.2871
11.1045,425,1.3710
11.1087,493,1.5903
11.1130,511,1.6484
11.1172,468,1.5097
11.1214,435,1.4032
11.1256,478,1.5419
11.1299,535,1.7258
11.1340,515,1.6613
11.1383,441,1.4226
11.1425,417,1.3452
11.1467,482,1.5548
11.1509,563,1.8161
11.1551,566,1.8258
11.1593,516,1.6645
11.1635,508,1.6387
11.1677,578,1.8645
11.1720,635,2.0484
11.1763,614,1.9806
11.1806,559,1.8032
11.1848,564,1.8194
11.1890,629,2.0290
11.1932,650,2.0968
11.1975,579,1.8677
11.2016,521,1.6806
11.2059,545,1.7581
11.2101,599,1.9323
11.2143,590,1.9032
11.2185,507,1.6355
11.2227,469,1.5129
11.2269,523,1.6871
11.2311,560,1.8065
11.2353,518,1.6710
11.2395,453,1.4613
11.2437,449,1.4484
11.2480,516,1.6645
11.2522,542,1.7484
11.2564,499,1.6097
11.2606,443,1.4290
11.2648,455,1.4677
11.2690,511,1.6484
11.2732,525,1.6935
11.2774,480,1.5484
11.2816,453,1.4613
11.2858,473,1.5258
11.2900,510,1.6452
11.2942,493,1.5903
11.2985,419,1.3516
11.3028,381,1.2290
11.3070,433,1.3968
11.3112,492,1.5871
11.3154,461,1.4871
11.3196,401,1.2935
11.3238,403,1.3000
11.3280,476,1.5355
11.3322,531,1.7129
11.3364,500,1.6129
11.3407,430,1.3871
11.3449,434,1.4000
11.3492,517,1.6677
11.3535,535,1.7258
11.3578,466,1.5032
11.3621,407,1.3129
11.3664,448,1.4452
11.3707,515,1.6613
11.3750,496,1.6000
11.3794,410,1.3226
11.3836,370,1.1935
11.3880,410,1.3226
11.3923,458,1.4774
11.3965,429,1.3839
11.4008,385,1.2419
11.4050,415,1.3387
11.4092,490,1.5806
11.4135,512,1.6516
11.4177,452,1.4581
11.4220,408,1.3161
11.4262,451,1.4548
11.4305,508,1.6387
11.4347,481,1.5516
11.4390,410,1.3226
11.4432,409,1.3194
11.4475,462,1.4903
11.4517,516,1.6645
11.4559,493,1.5903
11.4600,431,1.3903
11.4642,430,1.3871
11.4684,503,1.6226
11.4726,536,1.7290
11.4768,486,1.5677
11.4810,424,1.3677
11.4852,436,1.4065
11.4894,497,1.6032
11.4936,504,1.6258
11.4978,439,1.4161
11.5020,404,1.3032
11.5062,457,1.4742
11.5104,533,1.7194
11.5146,540,1.7419
11.5188,488,1.5742
11.5230,477,1.5387
11.5272,525,1.6935
11.5315,565,1.8226
11.5357,526,1.6968
11.5399,467,1.5065
11.5441,485,1.5645
11.5483,568,1.8323
11.5525,605,1.9516
11.5567,560,1.8065
11.5609,498,1.6065
11.5651,504,1.6258
11.5693,559,1.8032
11.5735,557,1.7968
11.5778,466,1.5032
11.5821,380,1.2258
11.5864,411,1.3258
11.5907,487,1.5710
11.5950,487,1.5710
11.5992,429,1.3839
11.6035,406,1.3097
11.6078,471,1.5194
11.6122,521,1.6806
11.6165,495,1.5968
11.6207,450,1.4516
11.6249,476,1.5355
11.6291,550,1.7742
11.6333,562,1.8129
11.6375,489,1.5774
11.6417,453,1.4613
11.6459,544,1.7548
11.6501,693,2.2355
11.6544,779,2.5129
11.6586,792,2.5548
11.6627,827,2.6677
11.6670,890,2.8710
11.6712,887,2.8613
11.6754,740,2.3871
11.6797,553,1.7839
11.6839,465,1.5000
11.6883,521,1.6806
11.6926,584,1.8839
11.6969,544,1.7548
11.7012,480,1.5484
11.7055,494,1.5935
11.7098,558,1.8000
11.7141,575,1.8548
11.7183,532,1.7161
11.7225,510,1.6452
11.7268,563,1.8161
11.7310,617,1.9903
11.7353,586,1.8903
11.7395,522,1.6839
11.7437,518,1.6710
11.7479,565,1.8226
11.7521,595,1.9194
11.7564,544,1.7548
11.7606,484,1.5613
11.7648,488,1.5742
11.7690,530,1.7097
11.7732,533,1.7194
11.7775,466,1.5032
11.7817,428,1.3806
11.7860,469,1.5129
11.7902,529,1.7065
11.7944,539,1.7387
11.7986,484,1.5613
11.8028,458,1.4774
11.8070,525,1.6935
11.8114,594,1.9161
11.8157,578,1.8645
11.8200,517,1.6677
11.8243,515,1.6613
11.8285,574,1.8516
11.8327,577,1.8613
11.8369,513,1.6548
11.8412,456,1.4710
11.8454,495,1.5968
11.8497,578,1.8645
11.8540,593,1.9129
11.8582,536,1.7290
11.8625,501,1.6161
11.8668,525,1.6935
11.8710,573,1.8484
11.8753,568,1.8323
11.8796,534,1.7226
11.8838,541,1.7452
11.8881,597,1.9258
11.8924,626,2.0194
11.8967,552,1.7806
11.9009,455,1.4677
11.9052,453,1.4613
11.9095,524,1.6903
11.9138,536,1.7290
11.9181,477,1.5387
11.9224,467,1.5065
11.9266,526,1.6968
11.9309,578,1.8645
11.9351,557,1.7968
11.9393,486,1.5677
11.9436,460,1.4839
11.9478,522,1.6839
11.9520,580,1.8710
11.9562,549,1.7710
11.9605,489,1.5774
11.9648,491,1.5839
11.9691,548,1.7677
11.9733,570,1.8387
11.9775,509,1.6419
11.9818,464,1.4968
11.9860,495,1.5968
11.9903,547,1.7645
11.9945,540,1.7419
11.9987,463,1.4935
12.0030,426,1.3742
12.0072,469,1.5129
12.0115,545,1.7581
12.0158,539,1.7387
12.0201,472,1.5226
12.0243,459,1.4806
12.0286,523,1.6871
12.0328,559,1.8032
12.0370,513,1.6548
12.0412,453,1.4613
12.0455,473,1.5258
12.0497,552,1.7806
12.0539,557,1.7968
12.0581,481,1.5516
12.0623,435,1.4032
12.0665,470,1.5161
12.0707,518,1.6710
12.0749,518,1.6710
12.0792,462,1.4903
12.0834,459,1.4806
12.0877,519,1.6742
12.0918,561,1.8097
12.0960,529,1.7065
12.1003,453,1.4613
12.1045,454,1.4645
12.1088,529,1.7065
12.1131,568,1.8323
12.1173,509,1.6419
12.1216,429,1.3839
12.1258,453,1.4613
12.1301,519,1.6742
12.1344,517,1.6677
12.1387,444,1.4323
12.1430,416,1.3419
12.1473,478,1.5419
12.1515,528,1.7032
12.1558,491,1.5839
12.1601,425,1.3710
12.1644,418,1.3484
12.1686,477,1.5387
12.1730,509,1.6419
12.1772,453,1.4613
12.1814,397,1.2806
12.1857,425,1.3710
12.1900,489,1.5774
12.1942,504,1.6258
12.1984,447,1.4419
12.2027,418,1.3484
12.2069,474,1.5290
12.2112,540,1.7419
12.2154,524,1.6903
12.2197,454,1.4645
12.2240,435,1.4032
12.2282,512,1.6516
12.2323,580,1.8710
12.2366,559,1.8032
12.2407,492,1.5871
12.2450,494,1.5935
12.2492,556,1.7935
12.2533,573,1.8484
12.2575,510,1.6452
12.2617,444,1.4323
12.2659,453,1.4613
12.2701,499,1.6097
12.2743,492,1.5871
12.2786,428,1.3806
12.2828,428,1.3806
12.2871,507,1.6355
12.2914,574,1.8516
12.2957,542,1.7484
12.3001,468,1.5097
12.3044,451,1.4548
12.3088,529,1.7065
12.3132,584,1.8839
12.3175,532,1.7161
12.3219,454,1.4645
12.3263,462,1.4903
12.3307,505,1.6290
12.3352,508,1.6387
12.3396,470,1.5161
12.3439,517,1.6677
12.3483,677,2.1839
12.3527,801,2.5839
12.3571,818,2.6387
12.3615,747,2.4097
12.3660,672,2.1677
12.3705,633,2.0419
12.3749,562,1.8129
12.3793,467,1.5065
12.3836,431,1.3903
12.3880,474,1.5290
12.3924,523,1.6871
12.3968,484,1.5613
12.4011,426,1.3742
12.4054,447,1.4419
12.4098,527,1.7000
12.4141,540,1.7419
12.4185,461,1.4871
12.4228,417,1.3452
12.4271,473,1.5258
12.4315,535,1.7258
12.4358,527,1.7000
12.4401,455,1.4677
12.4445,453,1.4613
12.4488,536,1.7290
12.4531,579,1.8677
12.4575,524,1.6903
12.4618,441,1.4226
12.4663,459,1.4806
12.4707,530,1.7097
12.4750,539,1.7387
12.4794,486,1.5677
12.4837,482,1.5548
12.4881,564,1.8194
12.4924,590,1.9032
12.4968,533,1.7194
12.5011,464,1.4968
12.5055,495,1.5968
12.5098,585,1.8871
12.5142,603,1.9452
12.5185,529,1.7065
12.5228,473,1.5258
12.5272,532,1.7161
12.5315,598,1.9290
12.5358,575,1.8548
12.5402,499,1.6097
12.5445,490,1.5806
12.5488,572,1.8452
12.5532,611,1.9710
12.5575,540,1.7419
12.5618,484,1.5613
12.5662,516,1.6645
12.5705,601,1.9387
12.5748,634,2.0452
12.5792,587,1.8935
12.5835,548,1.7677
12.5878,584,1.8839
12.5921,626,2.0194
12.5965,592,1.9097
12.6008,540,1.7419
12.6052,563,1.8161
12.6095,624,2.0129
12.6139,622,2.0065
12.6182,539,1.7387
12.6226,480,1.5484
12.6269,515,1.6613
12.6312,580,1.8710
12.6354,558,1.8000
12.6398,475,1.5323
12.6441,460,1.4839
12.6485,514,1.6581
12.6528,536,1.7290
12.6571,473,1.5258
12.6615,397,1.2806
12.6658,427,1.3774
12.6702,511,1.6484
12.6745,525,1.6935
12.6789,455,1.4677
12.6832,422,1.3613
12.6876,484,1.5613
12.6919,545,1.7581
12.6964,499,1.6097
12.7008,418,1.3484
12.7052,417,1.3452
12.7095,475,1.5323
12.7138,488,1.5742
12.7181,445,1.4355
12.7226,436,1.4065
12.7269,497,1.6032
12.7313,555,1.7903
12.7356,525,1.6935
12.7399,454,1.4645
12.7443,455,1.4677
12.7487,550,1.7742
12.7530,589,1.9000
12.7573,518,1.6710
12.7617,452,1.4581
12.7661,475,1.5323
12.7704,524,1.6903
12.7747,505,1.6290
12.7791,445,1.4355
12.7839,437,1.4097
12.7882,509,1.6419
12.7926,549,1.7710
12.7969,496,1.6000
12.8012,453,1.4613
12.8056,497,1.6032
12.8099,579,1.8677
12.8143,593,1.9129
12.8186,512,1.6516
12.8230,459,1.4806
12.8273,478,1.5419
12.8317,515,1.6613
12.8361,494,1.5935
12.8405,415,1.3387
12.8448,411,1.3258
12.8492,491,1.5839
12.8535,543,1.7516
12.8578,526,1.6968
12.8622,498,1.6065
12.8665,527,1.7000
12.8709,576,1.8581
12.8752,561,1.8097
12.8796,491,1.5839
12.8839,471,1.5194
12.8882,538,1.7355
12.8926,584,1.8839
12.8969,545,1.7581
12.9013,478,1.5419
12.9057,487,1.5710
12.9100,539,1.7387
12.9144,560,1.8065
12.9187,510,1.6452
12.9230,492,1.5871
12.9274,552,1.7806
12.9318,594,1.9161
12.9361,538,1.7355
12.9404,449,1.4484
12.9448,441,1.4226
12.9492,499,1.6097
12.9535,502,1.6194
12.9579,466,1.5032
12.9623,448,1.4452
12.9666,504,1.6258
12.9710,549,1.7710
12.9754,524,1.6903
12.9799,455,1.4677
12.9843,443,1.4290
12.9887,500,1.6129
12.9930,528,1.7032
12.9973,463,1.4935
13.0016,408,1.3161
13.0059,453,1.4613
13.0102,550,1.7742
13.0146,564,1.8194
13.0189,495,1.5968
13.0232,458,1.4774
13.0275,508,1.6387
13.0318,541,1.7452
13.0361,478,1.5419
13.0404,392,1.2645
13.0447,379,1.2226
13.0490,453,1.4613
13.0533,538,1.7355
13.0577,578,1.8645
13.0620,643,2.0742
13.0663,768,2.4774
13.0706,888,2.8645
13.0749,864,2.7871
13.0792,702,2.2645
13.0835,560,1.8065
13.0880,521,1.6806
13.0924,512,1.6516
13.0967,471,1.5194
13.1010,427,1.3774
13.1053,427,1.3774
13.1096,488,1.5742
13.1139,518,1.6710
13.1182,476,1.5355
13.1226,420,1.3548
13.1269,429,1.3839
13.1312,469,1.5129
13.1355,454,1.4645
13.1398,401,1.2935
13.1441,390,1.2581
13.1483,458,1.4774
13.1527,508,1.6387
13.1570,458,1.4774
13.1613,391,1.2613
13.1656,435,1.4032
13.1700,524,1.6903
13.1743,549,1.7710
13.1786,488,1.5742
13.1829,434,1.4000
13.1872,503,1.6226
13.1915,573,1.8484
13.1958,519,1.6742
13.2001,447,1.4419
13.2045,445,1.4355
13.2087,492,1.5871
13.2130,504,1.6258
13.2174,461,1.4871
13.2217,432,1.3935
13.2260,489,1.5774
13.2303,563,1.8161
13.2346,559,1.8032
13.2389,486,1.5677
13.2433,429,1.3839
13.2476,462,1.4903
13.2519,524,1.6903
13.2563,511,1.6484
13.2606,444,1.4323
13.2649,450,1.4516
13.2692,551,1.7774
13.2735,617,1.9903
13.2778,551,1.7774
13.2821,492,1.5871
13.2863,555,1.7903
13.2905,639,2.0613
13.2949,637,2.0548
13.2991,567,1.8290
13.3033,538,1.7355
13.3076,595,1.9194
13.3119,624,2.0129
13.3162,571,1.8419
13.3204,493,1.5903
13.3247,495,1.5968
13.3289,587,1.8935
13.3331,632,2.0387
13.3373,591,1.9065
13.3415,539,1.7387
13.3457,561,1.8097
13.3499,636,2.0516
13.3542,653,2.1065
13.3584,593,1.9129
13.3625,544,1.7548
13.3667,557,1.7968
13.3709,592,1.9097
13.3751,571,1.8419
13.3793,504,1.6258
13.3835,470,1.5161
13.3878,503,1.6226
13.3920,541,1.7452
13.3963,507,1.6355
13.4006,426,1.3742
13.4048,425,1.3710
13.4091,483,1.5581
13.4134,501,1.6161
13.4177,442,1.4258
13.4219,392,1.2645
13.4262,412,1.3290
13.4305,481,1.5516
13.4347,496,1.6000
13.4390,432,1.3935
13.4433,408,1.3161
13.4475,454,1.4645
13.4518,498,1.6065
13.4561,502,1.6194
13.4605,451,1.4548
13.4647,432,1.3935
13.4690,496,1.6000
13.4732,528,1.7032
13.4774,473,1.5258
13.4816,407,1.3129
13.4858,418,1.3484
13.4900,459,1.4806
13.4942,466,1.5032
13.4984,422,1.3613
13.5026,406,1.3097
13.5068,474,1.5290
13.5109,553,1.7839
13.5152,567,1.8290
13.5194,513,1.6548
13.5236,495,1.5968
13.5278,550,1.7742
13.5320,583,1.8806
13.5363,543,1.7516
13.5406,490,1.5806
13.5448,492,1.5871
13.5492,536,1.7290
13.5534,546,1.7613
13.5576,487,1.5710
13.5619,425,1.3710
13.5661,457,1.4742
13.5704,531,1.7129
13.5747,517,1.6677
13.5790,444,1.4323
13.5833,416,1.3419
13.5876,466,1.5032
13.5918,535,1.7258
13.5961,521,1.6806
13.6003,472,1.5226
13.6045,499,1.6097
13.6087,578,1.8645
13.6129,607,1.9581
13.6171,560,1.8065
13.6213,479,1.5452
13.6255,470,1.5161
13.6297,522,1.6839
13.6339,540,1.7419
13.6381,470,1.5161
13.6423,433,1.3968
13.6465,485,1.5645
13.6507,534,1.7226
13.6549,501,1.6161
13.6591,414,1.3355
13.6634,368,1.1871
13.6676,436,1.4065
13.6719,520,1.6774
13.6762,498,1.6065
13.6806,434,1.4000
13.6849,435,1.4032
13.6891,487,1.5710
13.6933,485,1.5645
13.6977,413,1.3323
13.7020,353,1.1387
13.7062,374,1.2065
13.7104,440,1.4194
13.7147,438,1.4129
13.7190,359,1.1581
13.7233,323,1.0419
13.7275,385,1.2419
13.7317,449,1.4484
13.7359,434,1.4000
13.7401,365,1.1774
13.7443,348,1.1226
13.7486,415,1.3387
13.7528,473,1.5258
13.7570,425,1.3710
13.7611,358,1.1548
13.7654,373,1.2032
13.7696,446,1.4387
13.7737,501,1.6161
13.7779,508,1.6387
13.7821,553,1.7839
13.7863,678,2.1871
13.7907,816,2.6323
13.7949,813,2.6226
13.7992,667,2.1516
13.8035,548,1.7677
13.8077,520,1.6774
13.8121,518,1.6710
13.8164,469,1.5129
13.8206,392,1.2645
13.8249,380,1.2258
13.8291,444,1.4323
13.8333,461,1.4871
13.8376,325,1.0484
13.8418,206,0.6645
13.8460,201,0.6484
13.8503,231,0.7452
13.8545,273,0.8806
13.8587,267,0.8613
13.8629,278,0.8968
13.8672,370,1.1935
13.8714,485,1.5645
13.8756,501,1.6161
13.8800,439,1.4161
13.8843,423,1.3645
13.8885,492,1.5871
13.8927,523,1.6871
13.8969,453,1.4613
13.9011,369,1.1903
13.9054,367,1.1839
13.9096,416,1.3419
13.9138,410,1.3226
13.9181,344,1.1097
13.9222,310,1.0000
13.9265,360,1.1613
13.9308,448,1.4452
13.9351,440,1.4194
13.9394,352,1.1355
13.9436,345,1.1129
13.9479,445,1.4355
13.9522,533,1.7194
13.9565,516,1.6645
13.9608,445,1.4355
13.9650,428,1.3806
13.9692,469,1.5129
13.9734,497,1.6032
13.9777,484,1.5613
13.9819,482,1.5548
13.9861,542,1.7484
13.9904,617,1.9903
13.9946,621,2.0032
13.9988,555,1.7903
14.0031,512,1.6516
14.0073,529,1.7065
14.0116,536,1.7290
14.0158,494,1.5935
14.0200,421,1.3581
14.0242,416,1.3419
14.0284,512,1.6516
14.0326,568,1.8323
14.0368,515,1.6613
14.0409,430,1.3871
14.0451,432,1.3935
14.0493,504,1.6258
14.0536,519,1.6742
14.0578,458,1.4774
14.0621,383,1.2355
14.0663,411,1.3258
14.0706,475,1.5323
14.0749,475,1.5323
14.0791,432,1.3935
14.0834,432,1.3935
14.0876,500,1.6129
14.0919,552,1.7806
14.0962,489,1.5774
14.1005,382,1.2323
14.1049,373,1.2032
14.1091,444,1.4323
14.1134,478,1.5419
14.1177,436,1.4065
14.1220,403,1.3000
14.1262,454,1.4645
14.1306,534,1.7226
14.1348,541,1.7452
14.1391,454,1.4645
14.1434,402,1.2968
14.1476,450,1.4516
14.1519,517,1.6677
14.1562,521,1.6806
14.1605,472,1.5226
14.1648,479,1.5452
14.1690,535,1.7258
14.1733,540,1.7419
14.1776,459,1.4806
14.1819,389,1.2548
14.1862,440,1.4194
14.1904,542,1.7484
14.1947,549,1.7710
14.1990,479,1.5452
14.2032,428,1.3806
14.2075,476,1.5355
14.2118,549,1.7710
14.2161,542,1.7484
14.2204,473,1.5258
14.2246,462,1.4903
14.2289,514,1.6581
14.2332,529,1.7065
14.2374,484,1.5613
14.2417,430,1.3871
14.2460,451,1.4548
14.2503,517,1.6677
14.2546,530,1.7097
14.2589,468,1.5097
14.2632,433,1.3968
14.2674,474,1.5290
14.2716,538,1.7355
14.2759,534,1.7226
14.2801,480,1.5484
14.2843,479,1.5452
14.2885,548,1.7677
14.2927,589,1.9000
14.2970,540,1.7419
14.3012,473,1.5258
14.3054,478,1.5419
14.3097,549,1.7710
14.3140,567,1.8290
14.3182,531,1.7129
14.3223,482,1.5548
14.3265,500,1.6129
14.3307,562,1.8129
14.3349,579,1.8677
14.3391,534,1.7226
14.3433,508,1.6387
14.3474,558,1.8000
14.3517,606,1.9548
14.3559,571,1.8419
14.3601,501,1.6161
14.3643,485,1.5645
14.3685,540,1.7419
14.3728,565,1.8226
14.3771,502,1.6194
14.3813,450,1.4516
14.3856,473,1.5258
14.3899,549,1.7710
14.3942,572,1.8452
14.3985,511,1.6484
14.4028,468,1.5097
14.4070,507,1.6355
14.4112,559,1.8032
14.4155,540,1.7419
14.4197,469,1.5129
14.4240,460,1.4839
14.4282,543,1.7516
14.4324,598,1.9290
14.4367,546,1.7613
14.4410,480,1.5484
14.4452,492,1.5871
14.4494,561,1.8097
14.4536,615,1.9839
14.4578,625,2.0161
14.4620,654,2.1097
14.4662,745,2.4032
14.4703,875,2.8226
14.4745,881,2.8419
14.4788,704,2.2710
14.4831,541,1.7452
14.4873,539,1.7387
14.4915,581,1.8742
14.4957,548,1.7677
14.4999,468,1.5097
14.5042,424,1.3677
14.5085,472,1.5226
14.5128,496,1.6000
14.5170,441,1.4226
14.5213,395,1.2742
14.5256,426,1.3742
14.5299,505,1.6290
14.5346,533,1.7194
14.5390,487,1.5710
14.5433,463,1.4935
14.5476,506,1.6323
14.5518,542,1.7484
14.5560,513,1.6548
14.5603,446,1.4387
14.5645,433,1.3968
14.5687,509,1.6419
14.5729,545,1.7581
14.5772,494,1.5935
14.5815,424,1.3677
14.5857,443,1.4290
14.5899,508,1.6387
14.5941,522,1.6839
14.5983,437,1.4097
14.6025,367,1.1839
14.6068,402,1.2968
14.6110,471,1.5194
14.6152,466,1.5032
14.6194,413,1.3323
14.6237,416,1.3419
14.6278,499,1.6097
14.6320,565,1.8226
14.6362,532,1.7161
14.6404,470,1.5161
14.6446,461,1.4871
14.6488,525,1.6935
14.6530,564,1.8194
14.6573,504,1.6258
14.6616,428,1.3806
14.6659,464,1.4968
14.6702,537,1.7323
14.6744,566,1.8258
14.6787,524,1.6903
14.6830,474,1.5290
14.6872,505,1.6290
14.6914,556,1.7935
14.6957,556,1.7935
14.6999,517,1.6677
14.7042,521,1.6806
14.7084,567,1.8290
14.7127,596,1.9226
14.7170,562,1.8129
14.7213,507,1.6355
14.7255,518,1.6710
14.7298,583,1.8806
14.7340,593,1.9129
14.7382,522,1.6839
14.7424,461,1.4871
14.7466,499,1.6097
14.7508,562,1.8129
14.7551,560,1.8065
14.7592,494,1.5935
14.7635,462,1.4903
14.7677,529,1.7065
14.7719,593,1.9129
14.7761,553,1.7839
14.7804,465,1.5000
14.7847,463,1.4935
14.7890,527,1.7000
14.7932,574,1.8516
14.7974,547,1.7645
14.8017,513,1.6548
14.8059,544,1.7548
14.8103,615,1.9839
14.8145,622,2.0065
14.8188,546,1.7613
14.8230,505,1.6290
14.8272,570,1.8387
14.8314,634,2.0452
14.8357,606,1.9548
14.8400,527,1.7000
14.8443,517,1.6677
14.8486,575,1.8548
14.8528,615,1.9839
14.8571,582,1.8774
14.8613,518,1.6710
14.8655,514,1.6581
14.8697,553,1.7839
14.8739,567,1.8290
14.8781,500,1.6129
14.8823,437,1.4097
14.8865,455,1.4677
14.8907,517,1.6677
14.8949,533,1.7194
14.8990,495,1.5968
14.9033,479,1.5452
14.9075,535,1.7258
14.9117,596,1.9226
14.9159,569,1.8355
14.9201,496,1.6000
14.9243,481,1.5516
14.9285,543,1.7516
14.9328,576,1.8581
14.9371,513,1.6548
14.9414,431,1.3903
14.9456,426,1.3742
14.9499,498,1.6065
14.9541,521,1.6806
14.9583,467,1.5065
14.9626,426,1.3742
14.9669,452,1.4581
14.9712,490,1.5806
14.9754,471,1.5194
14.9797,424,1.3677
14.9839,399,1.2871
14.9881,463,1.4935
14.9924,532,1.7161
14.9966,516,1.6645
15.0008,472,1.5226
15.0050,477,1.5387
15.0096,529,1.7065
15.0213,432,1.3935
15.0257,455,1.4677
15.0300,530,1.7097
15.0343,550,1.7742
15.0385,501,1.6161
15.0427,460,1.4839
15.0469,491,1.5839
15.0511,537,1.7323
15.0554,518,1.6710
15.0596,450,1.4516
15.0639,446,1.4387
15.0682,508,1.6387
15.0725,556,1.7935
15.0768,516,1.6645
15.0810,435,1.4032
15.0852,443,1.4290
15.0895,518,1.6710
15.0938,542,1.7484
15.0980,493,1.5903
15.1022,452,1.4581
15.1066,477,1.5387
15.1108,521,1.6806
15.1151,502,1.6194
15.1194,437,1.4097
15.1236,417,1.3452
15.1278,476,1.5355
15.1320,530,1.7097
15.1362,493,1.5903
15.1404,404,1.3032
15.1446,379,1.2226
15.1488,439,1.4161
15.1530,482,1.5548
15.1572,436,1.4065
15.1614,413,1.3323
15.1656,519,1.6742
15.1698,688,2.2194
15.1740,808,2.6065
15.1782,836,2.6968
15.1824,807,2.6032
15.1866,749,2.4161
15.1909,681,2.1968
15.1952,580,1.8710
15.1994,469,1.5129
15.2037,449,1.4484
15.2081,518,1.6710
15.2125,563,1.8161
15.2168,522,1.6839
15.2210,463,1.4935
15.2252,477,1.5387
15.2296,561,1.8097
15.2338,600,1.9355
15.2381,548,1.7677
15.2423,499,1.6097
15.2465,542,1.7484
15.2507,624,2.0129
15.2550,616,1.9871
15.2593,530,1.7097
15.2635,483,1.5581
15.2677,517,1.6677
15.2719,570,1.8387
15.2761,551,1.7774
15.2803,486,1.5677
15.2845,482,1.5548
15.2887,548,1.7677
15.2928,602,1.9419
15.2971,553,1.7839
15.3012,460,1.4839
15.3054,452,1.4581
15.3096,527,1.7000
15.3138,569,1.8355
15.3181,525,1.6935
15.3223,456,1.4710
15.3265,459,1.4806
15.3308,521,1.6806
15.3351,522,1.6839
15.3394,447,1.4419
15.3437,424,1.3677
15.3479,493,1.5903
15.3522,555,1.7903
15.3565,534,1.7226
15.3607,469,1.5129
15.3650,465,1.5000
15.3694,537,1.7323
15.3736,585,1.8871
15.3779,559,1.8032
15.3822,523,1.6871
15.3865,539,1.7387
15.3907,590,1.9032
15.3950,587,1.8935
15.3992,535,1.7258
15.4035,516,1.6645
15.4077,565,1.8226
15.4120,627,2.0226
15.4162,621,2.0032
15.4205,570,1.8387
15.4246,562,1.8129
15.4288,622,2.0065
15.4330,676,2.1806
15.4372,631,2.0355
15.4414,575,1.8548
15.4456,600,1.9355
15.4498,669,2.1581
15.4540,666,2.1484
15.4582,574,1.8516
15.4625,489,1.5774
15.4667,479,1.5452
15.4709,515,1.6613
15.4752,499,1.6097
15.4795,471,1.5194
15.4838,491,1.5839
15.4880,585,1.8871
15.4923,639,2.0613
15.4966,595,1.9194
15.5009,518,1.6710
15.5052,505,1.6290
15.5095,534,1.7226
15.5138,547,1.7645
15.5180,531,1.7129
15.5223,515,1.6613
15.5264,541,1.7452
15.5307,591,1.9065
15.5349,597,1.9258
15.5392,533,1.7194
15.5435,506,1.6323
15.5477,565,1.8226
15.5520,628,2.0258
15.5562,614,1.9806
15.5604,548,1.7677
15.5647,533,1.7194
15.5689,583,1.8806
15.5732,625,2.0161
15.5775,575,1.8548
15.5817,517,1.6677
15.5860,536,1.7290
15.5903,592,1.9097
15.5946,591,1.9065
15.5989,544,1.7548
15.6031,527,1.7000
15.6074,593,1.9129
15.6117,659,2.1258
15.6160,617,1.9903
15.6203,561,1.8097
15.6246,563,1.8161
15.6289,609,1.9645
15.6332,629,2.0290
15.6375,566,1.8258
15.6417,515,1.6613
15.6460,543,1.7516
15.6503,613,1.9774
15.6546,625,2.0161
15.6588,558,1.8000
15.6631,488,1.5742
15.6674,517,1.6677
15.6717,569,1.8355
15.6760,558,1.8000
15.6803,513,1.6548
15.6846,488,1.5742
15.6889,514,1.6581
15.6932,546,1.7613
15.6974,512,1.6516
15.7017,470,1.5161
15.7060,503,1.6226
15.7103,544,1.7548
15.7146,519,1.6742
15.7189,438,1.4129
15.7232,401,1.2935
15.7274,465,1.5000
15.7317,550,1.7742
15.7360,539,1.7387
15.7403,457,1.4742
15.7446,417,1.3452
15.7488,456,1.4710
15.7531,492,1.5871
15.7574,460,1.4839
15.7616,424,1.3677
15.7659,452,1.4581
15.7702,524,1.6903
15.7745,531,1.7129
15.7787,450,1.4516
15.7830,404,1.3032
15.7873,443,1.4290
15.7916,491,1.5839
15.7958,466,1.5032
15.8001,417,1.3452
15.8044,424,1.3677
15.8087,492,1.5871
15.8130,536,1.7290
15.8173,491,1.5839
15.8215,448,1.4452
15.8258,478,1.5419
15.8301,545,1.7581
15.8344,558,1.8000
15.8386,492,1.5871
15.8429,446,1.4387
15.8472,472,1.5226
15.8514,503,1.6226
15.8557,490,1.5806
15.8601,435,1.4032
15.8644,402,1.2968
15.8687,438,1.4129
15.8729,490,1.5806
15.8772,486,1.5677
15.8815,450,1.4516
15.8858,461,1.4871
15.8900,502,1.6194
15.8943,501,1.6161
15.8986,471,1.5194
15.9029,504,1.6258
15.9071,650,2.0968
15.9114,830,2.6774
15.9157,914,2.9484
15.9200,861,2.7774
15.9243,746,2.4065
15.9285,663,2.1387
15.9328,585,1.8871
15.9371,465,1.5000
15.9414,367,1.1839
15.9456,385,1.2419
15.9499,477,1.5387
15.9542,526,1.6968
15.9584,476,1.5355
15.9627,431,1.3903
15.9670,476,1.5355
15.9713,555,1.7903
15.9756,532,1.7161
15.9799,450,1.4516
15.9841,426,1.3742
15.9885,467,1.5065
15.9927,511,1.6484
15.9970,483,1.5581
16.0013,408,1.3161
16.0056,408,1.3161
16.0098,480,1.5484
16.0141,504,1.6258
16.0184,438,1.4129
16.0226,370,1.1935
16.0269,418,1.3484
16.0311,504,1.6258
16.0354,502,1.6194
16.0397,421,1.3581
16.0439,371,1.1968
16.0482,423,1.3645
16.0525,498,1.6065
16.0568,484,1.5613
16.0611,438,1.4129
16.0653,440,1.4194
16.0696,472,1.5226
16.0739,470,1.5161
16.0782,419,1.3516
16.0824,395,1.2742
16.0867,441,1.4226
16.0910,491,1.5839
16.0953,471,1.5194
16.0996,401,1.2935
16.1039,370,1.1935
16.1083,416,1.3419
16.1126,474,1.5290
16.1169,438,1.4129
16.1212,361,1.1645
16.1255,357,1.1516
16.1298,440,1.4194
16.1340,467,1.5065
16.1384,415,1.3387
16.1427,391,1.2613
16.1469,442,1.4258
16.1512,526,1.6968
16.1555,546,1.7613
16.1598,496,1.6000
16.1641,500,1.6129
16.1684,564,1.8194
16.1727,589,1.9000
16.1770,532,1.7161
16.1813,462,1.4903
16.1856,465,1.5000
16.1899,530,1.7097
16.1941,562,1.8129
16.1984,520,1.6774
16.2027,462,1.4903
16.2070,480,1.5484
16.2112,519,1.6742
16.2155,493,1.5903
16.2198,400,1.2903
16.2240,369,1.1903
16.2283,426,1.3742
16.2326,488,1.5742
16.2368,481,1.5516
16.2411,436,1.4065
16.2454,439,1.4161
16.2497,496,1.6000
16.2540,515,1.6613
16.2583,454,1.4645
16.2626,414,1.3355
16.2669,435,1.4032
16.2712,492,1.5871
16.2754,472,1.5226
16.2797,384,1.2387
16.2840,382,1.2323
16.2918,511,1.6484
16.2961,477,1.5387
16.3004,401,1.2935
16.3047,399,1.2871
16.3090,464,1.4968
16.3132,495,1.5968
16.3175,447,1.4419
16.3218,389,1.2548
16.3261,422,1.3613
16.3304,509,1.6419
16.3347,529,1.7065
16.3389,469,1.5129
16.3432,434,1.4000
16.3475,507,1.6355
16.3518,595,1.9194
16.3560,596,1.9226
16.3603,523,1.6871
16.3646,497,1.6032
16.3689,540,1.7419
16.3732,571,1.8419
16.3774,533,1.7194
16.3818,471,1.5194
16.3860,470,1.5161
16.3903,526,1.6968
16.3946,530,1.7097
16.3988,462,1.4903
16.4031,428,1.3806
16.4074,483,1.5581
16.4117,544,1.7548
16.4160,524,1.6903
16.4203,455,1.4677
16.4246,445,1.4355
16.4289,515,1.6613
16.4332,564,1.8194
16.4374,487,1.5710
16.4417,413,1.3323
16.4459,436,1.4065
16.4501,511,1.6484
16.4542,529,1.7065
16.4584,483,1.5581
16.4627,467,1.5065
16.4669,507,1.6355
16.4711,568,1.8323
16.4752,564,1.8194
16.4794,496,1.6000
16.4837,460,1.4839
16.4878,517,1.6677
16.4920,590,1.9032
16.4963,553,1.7839
16.5005,470,1.5161
16.5049,453,1.4613
16.5093,514,1.6581
16.5137,561,1.8097
16.5181,516,1.6645
16.5224,439,1.4161
16.5269,455,1.4677
16.5313,500,1.6129
16.5357,480,1.5484
16.5401,420,1.3548
16.5445,404,1.3032
16.5489,462,1.4903
16.5533,509,1.6419
16.5577,491,1.5839
16.5621,459,1.4806
16.5665,477,1.5387
16.5709,530,1.7097
16.5753,515,1.6613
16.5797,431,1.3903
16.5841,402,1.2968
16.5885,499,1.6097
16.5929,616,1.9871
16.5972,669,2.1581
16.6016,709,2.2871
16.6060,774,2.4968
16.6103,820,2.6452
16.6147,763,2.4613
16.6190,619,1.9968
16.6233,495,1.5968
16.6278,471,1.5194
16.6321,520,1.6774
16.6365,521,1.6806
16.6408,475,1.5323
16.6451,465,1.5000
16.6494,532,1.7161
16.6537,574,1.8516
16.6580,519,1.6742
16.6624,435,1.4032
16.6667,456,1.4710
16.6711,514,1.6581
16.6754,510,1.6452
16.6798,464,1.4968
16.6841,468,1.5097
16.6884,543,1.7516
16.6928,575,1.8548
16.6971,512,1.6516
16.7015,430,1.3871
16.7058,435,1.4032
16.7101,500,1.6129
16.7144,526,1.6968
16.7188,462,1.4903
16.7231,414,1.3355
16.7274,453,1.4613
16.7318,511,1.6484
16.7361,497,1.6032
16.7405,428,1.3806
16.7448,410,1.3226
16.7491,451,1.4548
16.7534,471,1.5194
16.7577,444,1.4323
16.7621,430,1.3871
16.7664,490,1.5806
16.7707,566,1.8258
16.7750,553,1.7839
16.7794,470,1.5161
16.7837,426,1.3742
16.7880,490,1.5806
16.7923,541,1.7452
16.7967,501,1.6161
16.8010,427,1.3774
16.8054,419,1.3516
16.8097,486,1.5677
16.8140,507,1.6355
16.8184,417,1.3452
16.8227,340,1.0968
16.8271,377,1.2161
16.8314,476,1.5355
16.8357,517,1.6677
16.8401,472,1.5226
16.8444,449,1.4484
16.8488,524,1.6903
16.8532,578,1.8645
16.8575,535,1.7258
16.8618,466,1.5032
16.8661,477,1.5387
16.8704,546,1.7613
16.8747,561,1.8097
16.8790,500,1.6129
16.8833,462,1.4903
16.8877,518,1.6710
16.8920,588,1.8968
16.8964,567,1.8290
16.9007,488,1.5742
16.9051,482,1.5548
16.9094,542,1.7484
16.9138,555,1.7903
16.9181,471,1.5194
16.9225,411,1.3258
16.9269,468,1.5097
16.9312,550,1.7742
16.9356,555,1.7903
16.9400,492,1.5871
16.9444,460,1.4839
16.9488,510,1.6452
16.9531,557,1.7968
16.9574,509,1.6419
16.9618,442,1.4258
16.9661,457,1.4742
16.9706,523,1.6871
16.9749,519,1.6742
16.9793,442,1.4258
16.9836,405,1.3065
16.9880,479,1.5452
16.9923,557,1.7968
16.9967,536,1.7290
17.0011,455,1.4677
17.0055,453,1.4613
17.0098,508,1.6387
17.0141,504,1.6258
17.0184,439,1.4161
17.0227,387,1.2484
17.0271,424,1.3677
17.0314,487,1.5710
17.0357,474,1.5290
17.0401,421,1.3581
17.0444,442,1.4258
17.0488,537,1.7323
17.0531,591,1.9065
17.0575,568,1.8323
17.0618,526,1.6968
17.0662,530,1.7097
17.0705,593,1.9129
17.0750,588,1.8968
17.0794,521,1.6806
17.0837,483,1.5581
17.0881,535,1.7258
17.0924,594,1.9161
17.0968,563,1.8161
17.1011,495,1.5968
17.1054,481,1.5516
17.1098,533,1.7194
17.1141,570,1.8387
17.1184,524,1.6903
17.1227,463,1.4935
17.1271,481,1.5516
17.1314,526,1.6968
17.1358,513,1.6548
17.1402,464,1.4968
17.1445,472,1.5226
17.1489,562,1.8129
17.1532,602,1.9419
17.1575,543,1.7516
17.1619,471,1.5194
17.1663,489,1.5774
17.1707,567,1.8290
17.1750,575,1.8548
17.1793,511,1.6484
17.1837,472,1.5226
17.1881,508,1.6387
17.1924,552,1.7806
17.1973,506,1.6323
17.2016,454,1.4645
17.2060,471,1.5194
17.2103,524,1.6903
17.2147,530,1.7097
17.2190,463,1.4935
17.2234,444,1.4323
17.2278,518,1.6710
17.2321,582,1.8774
17.2365,550,1.7742
17.2408,479,1.5452
17.2452,486,1.5677
17.2496,569,1.8355
17.2539,608,1.9613
17.2583,572,1.8452
17.2627,529,1.7065
17.2671,571,1.8419
17.2715,624,2.0129
17.2758,606,1.9548
17.2801,532,1.7161
17.2844,490,1.5806
17.2887,506,1.6323
17.2930,541,1.7452
17.2974,560,1.8065
17.3016,573,1.8484
17.3059,680,2.1935
17.3103,860,2.7742
17.3146,969,3.1258
17.3189,893,2.8806
17.3232,730,2.3548
17.3275,642,2.0710
17.3318,631,2.0355
17.3362,575,1.8548
17.3405,520,1.6774
17.3448,530,1.7097
17.3491,586,1.8903
17.3534,608,1.9613
17.3577,561,1.8097
17.3621,509,1.6419
17.3665,545,1.7581
17.3707,630,2.0323
17.3750,619,1.9968
17.3794,526,1.6968
17.3836,475,1.5323
17.3879,531,1.7129
17.3922,589,1.9000
17.3966,561,1.8097
17.4009,503,1.6226
17.4052,491,1.5839
17.4095,563,1.8161
17.4138,611,1.9710
17.4181,557,1.7968
17.4224,488,1.5742
17.4268,514,1.6581
17.4311,563,1.8161
17.4354,546,1.7613
17.4397,469,1.5129
17.4440,446,1.4387
17.4484,502,1.6194
17.4527,562,1.8129
17.4570,543,1.7516
17.4613,476,1.5355
17.4656,463,1.4935
17.4699,522,1.6839
17.4742,563,1.8161
17.4786,518,1.6710
17.4829,460,1.4839
17.4872,489,1.5774
17.4915,560,1.8065
17.4958,560,1.8065
17.5001,501,1.6161
17.5044,472,1.5226
17.5087,510,1.6452
17.5130,544,1.7548
17.5173,535,1.7258
17.5216,497,1.6032
17.5259,515,1.6613
17.5302,581,1.8742
17.5346,597,1.9258
17.5389,546,1.7613
17.5432,503,1.6226
17.5475,549,1.7710
17.5518,602,1.9419
17.5561,580,1.8710
17.5603,504,1.6258
17.5646,494,1.5935
17.5689,560,1.8065
17.5732,594,1.9161
17.5775,566,1.8258
17.5819,528,1.7032
17.5862,552,1.7806
17.5905,608,1.9613
17.5948,601,1.9387
17.5992,518,1.6710
17.6036,470,1.5161
17.6080,505,1.6290
17.6126,536,1.7290
17.6170,516,1.6645
17.6214,476,1.5355
17.6259,471,1.5194
17.6303,500,1.6129
17.6411,433,1.3968
17.6455,455,1.4677
17.6499,533,1.7194
17.6543,535,1.7258
17.6587,449,1.4484
17.6633,405,1.3065
17.6677,459,1.4806
17.6723,534,1.7226
17.6768,524,1.6903
17.6812,485,1.5645
17.6856,499,1.6097
17.6900,543,1.7516
17.6944,543,1.7516
17.6988,486,1.5677
17.7031,465,1.5000
17.7075,514,1.6581
17.7119,568,1.8323
17.7162,558,1.8000
17.7206,509,1.6419
17.7249,513,1.6548
17.7293,578,1.8645
17.7336,595,1.9194
17.7379,519,1.6742
17.7423,451,1.4548
17.7466,474,1.5290
17.7509,532,1.7161
17.7553,541,1.7452
17.7596,485,1.5645
17.7639,443,1.4290
17.7683,471,1.5194
17.7726,533,1.7194
17.7770,519,1.6742
17.7813,460,1.4839
17.7857,453,1.4613
17.7900,520,1.6774
17.7943,551,1.7774
17.7986,506,1.6323
17.8030,469,1.5129
17.8073,521,1.6806
17.8116,590,1.9032
17.8160,591,1.9065
17.8203,515,1.6613
17.8246,475,1.5323
17.8289,525,1.6935
17.8333,558,1.8000
17.8376,495,1.5968
17.8420,421,1.3581
17.8463,440,1.4194
17.8507,520,1.6774
17.8550,537,1.7323
17.8594,496,1.6000
17.8638,444,1.4323
17.8681,473,1.5258
17.8724,532,1.7161
17.8769,518,1.6710
17.8812,459,1.4806
17.8855,444,1.4323
17.8899,512,1.6516
17.8942,540,1.7419
17.8985,494,1.5935
17.9029,455,1.4677
17.9072,480,1.5484
17.9116,538,1.7355
17.9160,534,1.7226
17.9203,451,1.4548
17.9246,400,1.2903
17.9291,432,1.3935
17.9334,473,1.5258
17.9377,451,1.4548
17.9420,409,1.3194
17.9464,425,1.3710
17.9507,492,1.5871
17.9551,514,1.6581
17.9594,471,1.5194
17.9637,444,1.4323
17.9680,491,1.5839
17.9723,536,1.7290
17.9767,515,1.6613
17.9810,460,1.4839
17.9853,451,1.4548
17.9897,494,1.5935
17.9940,506,1.6323
17.9983,439,1.4161
18.0028,388,1.2516
18.0071,414,1.3355
18.0115,488,1.5742
18.0158,521,1.6806
18.0201,551,1.7774
18.0245,663,2.1387
18.0288,851,2.7452
18.0333,988,3.1871
18.0377,983,3.1710
18.0420,893,2.8806
18.0464,814,2.6258
18.0508,773,2.4935
18.0552,712,2.2968
18.0596,632,2.0387
18.0639,609,1.9645
18.0683,695,2.2419
18.0727,777,2.5065
18.0776,749,2.4161
18.0820,685,2.2097
18.0865,697,2.2484
18.0909,750,2.4194
18.0953,732,2.3613
18.0997,656,2.1161
18.1042,624,2.0129
18.1085,678,2.1871
18.1129,738,2.3806
18.1173,699,2.2548
18.1217,613,1.9774
18.1260,601,1.9387
18.1304,628,2.0258
18.1348,624,2.0129
18.1392,549,1.7710
18.1436,513,1.6548
18.1480,561,1.8097
18.1524,612,1.9742
18.1569,576,1.8581
18.1613,487,1.5710
18.1656,465,1.5000
18.1701,518,1.6710
18.1744,535,1.7258
18.1788,470,1.5161
18.1832,420,1.3548
18.1875,438,1.4129
18.1919,481,1.5516
18.1963,453,1.4613
18.2007,388,1.2516
18.2050,367,1.1839
18.2093,422,1.3613
18.2136,458,1.4774
18.2179,404,1.3032
18.2223,329,1.0613
18.2266,307,0.9903
18.2309,326,1.0516
18.2352,327,1.0548
18.2395,270,0.8710
18.2439,238,0.7677
18.2481,270,0.8710
18.2525,281,0.9065
18.2568,225,0.7258
18.2611,174,0.5613
18.2654,178,0.5742
18.2697,215,0.6935
18.2740,235,0.7581
18.2783,197,0.6355
18.2827,170,0.5484
18.2870,209,0.6742
18.2913,268,0.8645
18.2957,304,0.9806
18.3001,339,1.0935
18.3045,429,1.3839
18.3088,563,1.8161
18.3132,597,1.9258
18.3176,482,1.5548
18.3220,344,1.1097
18.3264,305,0.9839
18.3308,355,1.1452
18.3351,414,1.3355
18.3395,406,1.3097
18.3439,417,1.3452
18.3483,477,1.5387
18.3527,487,1.5710
18.3571,414,1.3355
18.3615,332,1.0710
18.3659,305,0.9839
18.3702,320,1.0323
18.3746,283,0.9129
18.3791,180,0.5806
18.3835,137,0.4419
18.3879,198,0.6387
18.3923,300,0.9677
18.3967,376,1.2129
18.4011,407,1.3129
18.4054,423,1.3645
18.4098,485,1.5645
18.4142,545,1.7581
18.4187,533,1.7194
18.4230,516,1.6645
18.4274,571,1.8419
18.4318,643,2.0742
18.4362,643,2.0742
18.4406,577,1.8613
18.4450,521,1.6806
18.4494,556,1.7935
18.4538,584,1.8839
18.4582,540,1.7419
18.4626,489,1.5774
18.4670,507,1.6355
18.4714,560,1.8065
18.4758,547,1.7645
18.4802,479,1.5452
18.4846,454,1.4645
18.4891,518,1.6710
18.4935,555,1.7903
18.4978,529,1.7065
18.5022,488,1.5742
18.5066,527,1.7000
18.5111,593,1.9129
18.5155,606,1.9548
18.5199,543,1.7516
18.5243,513,1.6548
18.5287,560,1.8065
18.5331,602,1.9419
18.5375,556,1.7935
18.5419,481,1.5516
18.5463,460,1.4839
18.5507,501,1.6161
18.5551,517,1.6677
18.5595,460,1.4839
18.5638,422,1.3613
18.5682,472,1.5226
18.5726,543,1.7516
18.5769,539,1.7387
18.5813,501,1.6161
18.5857,525,1.6935
18.5900,600,1.9355
18.5943,636,2.0516
18.5986,588,1.8968
18.6030,526,1.6968
18.6073,545,1.7581
18.6117,610,1.9677
18.6160,592,1.9097
18.6203,537,1.7323
18.6247,557,1.7968
18.6290,631,2.0355
18.6334,678,2.1871
18.6377,627,2.0226
18.6420,555,1.7903
18.6464,560,1.8065
18.6507,608,1.9613
18.6551,618,1.9935
18.6594,541,1.7452
18.6638,492,1.5871
18.6682,532,1.7161
18.6726,582,1.8774
18.6769,554,1.7871
18.6812,484,1.5613
18.6855,471,1.5194
18.6899,539,1.7387
18.6942,569,1.8355
18.6985,540,1.7419
18.7029,512,1.6516
18.7072,531,1.7129
18.7117,572,1.8452
18.7161,554,1.7871
18.7204,502,1.6194
18.7247,507,1.6355
18.7291,560,1.8065
18.7334,581,1.8742
18.7377,524,1.6903
18.7420,458,1.4774
18.7463,459,1.4806
18.7507,549,1.7710
18.7550,635,2.0484
18.7594,672,2.1677
18.7636,751,2.4226
18.7680,866,2.7935
18.7723,884,2.8516
18.7767,748,2.4129
18.7810,544,1.7548
18.7854,421,1.3581
18.7897,433,1.3968
18.7940,474,1.5290
18.7984,461,1.4871
18.8027,441,1.4226
18.8070,472,1.5226
18.8114,504,1.6258
18.8158,481,1.5516
18.8201,433,1.3968
18.8244,435,1.4032
18.8287,499,1.6097
18.8331,543,1.7516
18.8374,501,1.6161
18.8418,430,1.3871
18.8461,415,1.3387
18.8504,451,1.4548
18.8548,463,1.4935
18.8591,429,1.3839
18.8634,424,1.3677
18.8678,481,1.5516
18.8721,531,1.7129
18.8764,528,1.7032
18.8808,496,1.6000
18.8851,489,1.5774
18.8895,522,1.6839
18.8939,549,1.7710
18.8983,515,1.6613
18.9028,476,1.5355
18.9071,492,1.5871
18.9115,522,1.6839
18.9159,527,1.7000
18.9203,487,1.5710
18.9247,475,1.5323
18.9291,533,1.7194
18.9335,564,1.8194
18.9379,522,1.6839
18.9423,490,1.5806
18.9469,520,1.6774
18.9513,594,1.9161
18.9557,632,2.0387
18.9602,608,1.9613
18.9646,602,1.9419
18.9689,647,2.0871
18.9733,695,2.2419
18.9778,677,2.1839
18.9824,630,2.0323
18.9868,629,2.0290
18.9912,657,2.1194
18.9956,671,2.1645
19.0000,630,2.0323
19.0044,579,1.8677
19.0088,596,1.9226
19.0132,631,2.0355
19.0176,606,1.9548
19.0220,568,1.8323
19.0264,552,1.7806
19.0307,570,1.8387
19.0351,569,1.8355
19.0396,510,1.6452
19.0440,446,1.4387
19.0484,463,1.4935
19.0528,473,1.5258
19.0572,412,1.3290
19.0615,352,1.1355
19.0658,352,1.1355
19.0702,406,1.3097
19.0746,419,1.3516
19.0789,357,1.1516
19.0832,304,0.9806
19.0875,319,1.0290
19.0917,383,1.2355
19.0960,388,1.2516
19.1003,337,1.0871
19.1047,314,1.0129
19.1090,347,1.1194
19.1133,393,1.2677
19.1176,388,1.2516
19.1219,370,1.1935
19.1263,397,1.2806
19.1307,448,1.4452
19.1350,451,1.4548
19.1394,407,1.3129
19.1438,395,1.2742
19.1481,437,1.4097
19.1525,478,1.5419
19.1569,468,1.5097
19.1613,444,1.4323
19.1656,441,1.4226
19.1699,478,1.5419
19.1742,482,1.5548
19.1785,443,1.4290
19.1829,430,1.3871
19.1872,489,1.5774
19.1915,580,1.8710
19.1958,598,1.9290
19.2001,567,1.8290
19.2044,530,1.7097
19.2087,549,1.7710
19.2131,567,1.8290
19.2174,534,1.7226
19.2218,473,1.5258
19.2261,471,1.5194
19.2305,510,1.6452
19.2348,536,1.7290
19.2391,509,1.6419
19.2434,478,1.5419
19.2478,498,1.6065
19.2521,541,1.7452
19.2564,546,1.7613
19.2607,488,1.5742
19.2650,468,1.5097
19.2694,508,1.6387
19.2737,509,1.6419
19.2780,448,1.4452
19.2826,406,1.3097
19.2870,437,1.4097
19.2913,486,1.5677
19.2957,474,1.5290
19.3000,425,1.3710
19.3045,401,1.2935
19.3088,419,1.3516
19.3131,439,1.4161
19.3174,438,1.4129
19.3217,410,1.3226
19.3261,428,1.3806
19.3304,482,1.5548
19.3347,519,1.6742
19.3390,489,1.5774
19.3433,473,1.5258
19.3477,518,1.6710
19.3520,572,1.8452
19.3564,562,1.8129
19.3607,492,1.5871
19.3650,444,1.4323
19.3693,478,1.5419
19.3736,503,1.6226
19.3780,470,1.5161
19.3823,443,1.4290
19.3867,487,1.5710
19.3910,555,1.7903
19.3954,557,1.7968
19.3997,507,1.6355
19.4040,466,1.5032
19.4083,484,1.5613
19.4127,527,1.7000
19.4171,525,1.6935
19.4214,516,1.6645
19.4257,525,1.6935
19.4301,550,1.7742
19.4344,548,1.7677
19.4388,498,1.6065
19.4432,472,1.5226
19.4475,511,1.6484
19.4519,545,1.7581
19.4562,536,1.7290
19.4606,526,1.6968
19.4650,613,1.9774
19.4693,778,2.5097
19.4736,931,3.0032
19.4780,988,3.1871
19.4823,935,3.0161
19.4866,824,2.6581
19.4909,735,2.3710
19.4952,649,2.0935
19.4996,568,1.8323
19.5039,555,1.7903
19.5082,601,1.9387
19.5125,629,2.0290
19.5169,605,1.9516
19.5212,532,1.7161
19.5256,470,1.5161
19.5299,485,1.5645
19.5343,501,1.6161
19.5386,473,1.5258
19.5429,476,1.5355
19.5473,544,1.7548
19.5516,607,1.9581
19.5559,603,1.9452
19.5603,563,1.8161
19.5646,578,1.8645
19.5689,640,2.0645
19.5732,640,2.0645
19.5776,561,1.8097
19.5819,489,1.5774
19.5862,473,1.5258
19.5905,517,1.6677
19.5948,557,1.7968
19.5992,555,1.7903
19.6036,573,1.8484
19.6079,598,1.9290
19.6121,591,1.9065
19.6163,551,1.7774
19.6204,494,1.5935
19.6246,483,1.5581
19.6288,553,1.7839
19.6329,612,1.9742
19.6371,578,1.8645
19.6413,525,1.6935
19.6455,516,1.6645
19.6496,562,1.8129
19.6538,572,1.8452
19.6580,547,1.7645
19.6621,524,1.6903
19.6663,546,1.7613
19.6705,589,1.9000
19.6747,614,1.9806
19.6789,582,1.8774
19.6832,554,1.7871
19.6875,588,1.8968
19.6917,653,2.1065
19.6960,646,2.0839
19.7003,597,1.9258
19.7045,579,1.8677
19.7087,610,1.9677
19.7129,634,2.0452
19.7171,590,1.9032
19.7213,536,1.7290
19.7254,572,1.8452
19.7296,671,2.1645
19.7338,741,2.3903
19.7379,723,2.3323
19.7421,673,2.1710
19.7463,667,2.1516
19.7504,676,2.1806
19.7546,678,2.1871
19.7588,636,2.0516
19.7629,598,1.9290
19.7671,616,1.9871
19.7713,644,2.0774
19.7754,636,2.0516
19.7796,582,1.8774
19.7838,557,1.7968
19.7879,610,1.9677
19.7921,650,2.0968
19.7963,622,2.0065
19.8004,555,1.7903
19.8046,526,1.6968
19.8088,573,1.8484
19.8130,608,1.9613
19.8172,577,1.8613
19.8213,537,1.7323
19.8255,526,1.6968
19.8296,559,1.8032
19.8338,567,1.8290
19.8380,532,1.7161
19.8422,485,1.5645
19.8463,485,1.5645
19.8505,519,1.6742
19.8550,521,1.6806
19.8592,488,1.5742
19.8634,461,1.4871
19.8676,490,1.5806
19.8718,527,1.7000
19.8760,515,1.6613
19.8803,472,1.5226
19.8845,479,1.5452
19.8888,538,1.7355
19.8929,566,1.8258
19.8971,535,1.7258
19.9012,484,1.5613
19.9054,479,1.5452
19.9096,540,1.7419
19.9137,599,1.9323
19.9179,587,1.8935
19.9220,561,1.8097
19.9262,589,1.9000
19.9304,630,2.0323
19.9345,625,2.0161
19.9387,561,1.8097
19.9428,508,1.6387
19.9470,540,1.7419
19.9511,576,1.8581
19.9553,571,1.8419
19.9595,524,1.6903
19.9637,492,1.5871
19.9678,513,1.6548
19.9720,549,1.7710
19.9761,525,1.6935
19.9803,451,1.4548
19.9844,422,1.3613
19.9886,475,1.5323
19.9927,524,1.6903
19.9969,508,1.6387
20.0011,465,1.5000
20.0052,461,1.4871
20.0094,489,1.5774
20.0143,509,1.6419
20.0187,480,1.5484
20.0230,436,1.4065
20.0274,437,1.4097
20.0317,479,1.5452
20.0360,476,1.5355
20.0402,419,1.3516
20.0445,394,1.2710
20.0487,428,1.3806
20.0529,489,1.5774
20.0571,508,1.6387
20.0612,486,1.5677
20.0654,503,1.6226
20.0696,554,1.7871
20.0738,571,1.8419
20.0780,536,1.7290
20.0821,503,1.6226
20.0863,543,1.7516
20.0905,605,1.9516
20.0947,595,1.9194
20.0988,512,1.6516
20.1030,462,1.4903
20.1072,498,1.6065
20.1114,564,1.8194
20.1156,585,1.8871
20.1198,539,1.7387
20.1239,507,1.6355
20.1281,526,1.6968
20.1323,582,1.8774
20.1365,600,1.9355
20.1407,580,1.8710
20.1448,559,1.8032
20.1490,556,1.7935
20.1532,553,1.7839
20.1575,523,1.6871
20.1618,488,1.5742
20.1659,499,1.6097
20.1701,556,1.7935
20.1743,581,1.8742
20.1804,491,1.5839
20.1847,457,1.4742
20.1890,494,1.5935
20.1931,536,1.7290
20.1974,544,1.7548
20.2016,568,1.8323
20.2058,674,2.1742
20.2100,818,2.6387
20.2142,909,2.9323
20.2184,835,2.6935
20.2226,659,2.1258
20.2267,506,1.6323
20.2309,436,1.4065
20.2351,431,1.3903
20.2393,424,1.3677
20.2435,419,1.3516
20.2476,476,1.5355
20.2518,529,1.7065
20.2560,521,1.6806
20.2602,489,1.5774
20.2644,494,1.5935
20.2685,535,1.7258
20.2727,556,1.7935
20.2769,516,1.6645
20.2811,458,1.4774
20.2852,455,1.4677
20.2894,506,1.6323
20.2936,540,1.7419
20.2978,501,1.6161
20.3020,436,1.4065
20.3061,425,1.3710
20.3103,474,1.5290
20.3145,524,1.6903
20.3187,508,1.6387
20.3229,465,1.5000
20.3271,479,1.5452
20.3312,529,1.7065
20.3354,532,1.7161
20.3396,489,1.5774
20.3438,474,1.5290
20.3480,515,1.6613
20.3521,538,1.7355
20.3563,484,1.5613
20.3605,396,1.2774
20.3647,363,1.1710
20.3688,435,1.4032
20.3730,523,1.6871
20.3772,520,1.6774
20.3814,473,1.5258
20.3855,476,1.5355
20.3897,526,1.6968
20.3939,547,1.7645
20.3981,514,1.6581
20.4023,467,1.5065
20.4064,478,1.5419
20.4106,536,1.7290
20.4148,547,1.7645
20.4190,514,1.6581
20.4232,501,1.6161
20.4274,550,1.7742
20.4316,599,1.9323
20.4357,586,1.8903
20.4399,548,1.7677
20.4441,556,1.7935
20.4483,604,1.9484
20.4524,620,2.0000
20.4566,572,1.8452
20.4608,515,1.6613
20.4650,516,1.6645
20.4692,546,1.7613
20.4734,542,1.7484
20.4775,472,1.5226
20.4817,404,1.3032
20.4859,420,1.3548
20.4901,478,1.5419
20.4942,506,1.6323
20.4984,465,1.5000
20.5026,436,1.4065
20.5068,472,1.5226
20.5109,511,1.6484
20.5152,482,1.5548
20.5194,414,1.3355
20.5235,395,1.2742
20.5277,432,1.3935
20.5319,475,1.5323
20.5361,461,1.4871
20.5403,397,1.2806
20.5445,379,1.2226
20.5488,415,1.3387
20.5532,445,1.4355
20.5575,442,1.4258
20.5618,432,1.3935
20.5662,463,1.4935
20.5705,507,1.6355
20.5748,528,1.7032
20.5792,524,1.6903
20.5835,484,1.5613
20.5878,474,1.5290
20.5921,470,1.5161
20.5965,430,1.3871
20.6008,397,1.2806
20.6051,427,1.3774
20.6095,513,1.6548
20.6138,558,1.8000
20.6182,513,1.6548
20.6226,442,1.4258
20.6269,444,1.4323
20.6312,491,1.5839
20.6355,498,1.6065
20.6398,458,1.4774
20.6443,452,1.4581
20.6486,482,1.5548
20.6529,509,1.6419
20.6572,490,1.5806
20.6615,435,1.4032
20.6658,467,1.5065
20.6701,559,1.8032
20.6744,572,1.8452
20.6787,499,1.6097
20.6830,434,1.4000
20.6873,469,1.5129
20.6916,520,1.6774
20.6958,487,1.5710
20.7001,411,1.3258
20.7044,399,1.2871
20.7087,449,1.4484
20.7130,481,1.5516
20.7173,416,1.3419
20.7216,359,1.1581
20.7259,398,1.2839
20.7302,491,1.5839
20.7345,537,1.7323
20.7388,496,1.6000
20.7431,454,1.4645
20.7475,477,1.5387
20.7518,533,1.7194
20.7561,547,1.7645
20.7604,518,1.6710
20.7648,532,1.7161
20.7691,587,1.8935
20.7734,615,1.9839
20.7778,587,1.8935
20.7824,552,1.7806
20.7870,575,1.8548
20.7914,648,2.0903
20.7957,667,2.1516
20.8001,608,1.9613
20.8044,550,1.7742
20.8087,564,1.8194
20.8131,598,1.9290
20.8174,562,1.8129
20.8217,502,1.6194
20.8261,490,1.5806
20.8304,534,1.7226
20.8347,533,1.7194
20.8391,426,1.3742
20.8434,345,1.1129
20.8478,365,1.1774
20.8522,416,1.3419
20.8565,381,1.2290
20.8608,306,0.9871
20.8651,317,1.0226
20.8694,409,1.3194
20.8737,459,1.4806
20.8780,436,1.4065
20.8823,406,1.3097
20.8866,430,1.3871
20.8909,460,1.4839
20.8952,464,1.4968
20.8995,423,1.3645
20.9037,397,1.2806
20.9080,438,1.4129
20.9124,490,1.5806
20.9167,489,1.5774
20.9210,493,1.5903
20.9253,567,1.8290
20.9296,702,2.2645
20.9339,784,2.5290
20.9382,777,2.5065
20.9424,727,2.3452
20.9467,680,2.1935
20.9512,631,2.0355
20.9555,545,1.7581
20.9598,428,1.3806
20.9641,378,1.2194
20.9684,437,1.4097
20.9728,503,1.6226
20.9771,476,1.5355
20.9814,419,1.3516
20.9858,406,1.3097
20.9901,439,1.4161
20.9944,442,1.4258
20.9988,406,1.3097
21.0031,425,1.3710
21.0074,509,1.6419
21.0118,580,1.8710
21.0161,573,1.8484
21.0205,506,1.6323
21.0248,479,1.5452
21.0291,514,1.6581
21.0335,537,1.7323
21.0378,492,1.5871
21.0421,453,1.4613
21.0464,472,1.5226
21.0508,521,1.6806
21.0552,540,1.7419
21.0595,480,1.5484
21.0638,422,1.3613
21.0681,420,1.3548
21.0724,459,1.4806
21.0769,445,1.4355
21.0823,397,1.2806
21.0868,412,1.3290
21.0912,440,1.4194
21.0955,414,1.3355
21.0998,340,1.0968
21.1041,315,1.0161
21.1084,370,1.1935
21.1127,416,1.3419
21.1170,410,1.3226
21.1213,371,1.1968
21.1256,377,1.2161
21.1299,458,1.4774
21.1342,512,1.6516
21.1385,484,1.5613
21.1427,434,1.4000
21.1470,463,1.4935
21.1513,539,1.7387
21.1557,563,1.8161
21.1600,527,1.7000
21.1643,512,1.6516
21.1686,554,1.7871
21.1729,587,1.8935
21.1772,564,1.8194
21.1815,520,1.6774
21.1858,520,1.6774
21.1901,573,1.8484
21.1944,609,1.9645
21.1987,603,1.9452
21.2030,585,1.8871
21.2072,598,1.9290
21.2115,612,1.9742
21.2158,584,1.8839
21.2202,530,1.7097
21.2245,524,1.6903
21.2288,576,1.8581
21.2330,617,1.9903
21.2373,576,1.8581
21.2416,496,1.6000
21.2459,474,1.5290
21.2502,542,1.7484
21.2545,577,1.8613
21.2589,526,1.6968
21.2632,497,1.6032
21.2675,546,1.7613
21.2719,599,1.9323
21.2762,551,1.7774
21.2805,463,1.4935
21.2849,433,1.3968
21.2892,466,1.5032
21.2935,495,1.5968
21.2978,496,1.6000
21.3022,475,1.5323
21.3065,488,1.5742
21.3108,547,1.7645
21.3152,564,1.8194
21.3195,523,1.6871
21.3239,497,1.6032
21.3282,523,1.6871
21.3325,552,1.7806
21.3368,510,1.6452
21.3412,450,1.4516
21.3455,465,1.5000
21.3498,523,1.6871
21.3542,540,1.7419
21.3585,461,1.4871
21.3629,394,1.2710
21.3673,411,1.3258
21.3716,460,1.4839
21.3759,437,1.4097
21.3802,354,1.1419
21.3845,336,1.0839
21.3888,419,1.3516
21.3931,484,1.5613
21.3973,447,1.4419
21.4016,390,1.2581
21.4059,400,1.2903
21.4102,452,1.4581
21.4145,480,1.5484
21.4188,464,1.4968
21.4232,458,1.4774
21.4274,504,1.6258
21.4317,556,1.7935
21.4360,553,1.7839
21.4403,532,1.7161
21.4446,539,1.7387
21.4489,592,1.9097
21.4532,637,2.0548
21.4575,614,1.9806
21.4618,546,1.7613
21.4661,533,1.7194
21.4704,586,1.8903
21.4747,573,1.8484
21.4790,489,1.5774
21.4834,435,1.4032
21.4877,465,1.5000
21.4920,508,1.6387
21.4964,509,1.6419
21.5007,465,1.5000
21.5050,433,1.3968
21.5094,474,1.5290
21.5137,505,1.6290
21.5180,480,1.5484
21.5224,440,1.4194
21.5268,439,1.4161
21.5311,495,1.5968
21.5354,525,1.6935
21.5397,484,1.5613
21.5441,442,1.4258
21.5484,476,1.5355
21.5527,532,1.7161
21.5571,504,1.6258
21.5614,446,1.4387
21.5658,442,1.4258
21.5702,506,1.6323
21.5745,547,1.7645
21.5788,513,1.6548
21.5831,445,1.4355
21.5874,464,1.4968
21.5916,517,1.6677
21.5959,490,1.5806
21.6002,422,1.3613
21.6045,387,1.2484
21.6126,399,1.2871
21.6170,359,1.1581
21.6213,345,1.1129
21.6256,434,1.4000
21.6299,582,1.8774
21.6342,653,2.1065
21.6385,591,1.9065
21.6428,529,1.7065
21.6471,550,1.7742
21.6514,596,1.9226
21.6557,561,1.8097
21.6599,496,1.6000
21.6642,515,1.6613
21.6685,640,2.0645
21.6728,792,2.5548
21.6772,874,2.8194
21.6824,864,2.7871
21.6868,806,2.6000
21.6912,739,2.3839
21.6955,636,2.0516
21.6998,479,1.5452
21.7041,409,1.3194
21.7084,461,1.4871
21.7127,525,1.6935
21.7170,506,1.6323
21.7213,433,1.3968
21.7256,412,1.3290
21.7299,459,1.4806
21.7342,498,1.6065
21.7385,482,1.5548
21.7428,467,1.5065
21.7471,520,1.6774
21.7514,574,1.8516
21.7557,564,1.8194
21.7600,492,1.5871
21.7642,436,1.4065
21.7685,472,1.5226
21.7729,539,1.7387
21.7772,523,1.6871
21.7815,476,1.5355
21.7857,471,1.5194
21.7900,533,1.7194
21.7944,547,1.7645
21.7987,465,1.5000
21.8030,383,1.2355
21.8074,408,1.3161
21.8118,491,1.5839
21.8161,501,1.6161
21.8204,461,1.4871
21.8247,462,1.4903
21.8289,525,1.6935
21.8333,547,1.7645
21.8375,491,1.5839
21.8418,431,1.3903
21.8461,442,1.4258
21.8504,483,1.5581
21.8547,478,1.5419
21.8590,427,1.3774
21.8633,391,1.2613
21.8676,418,1.3484
21.8719,474,1.5290
21.8763,460,1.4839
21.8806,399,1.2871
21.8849,406,1.3097
21.8892,447,1.4419
21.8936,467,1.5065
21.8979,433,1.3968
21.9022,401,1.2935
21.9066,421,1.3581
21.9109,468,1.5097
21.9153,469,1.5129
21.9196,425,1.3710
21.9239,425,1.3710
21.9283,493,1.5903
21.9326,534,1.7226
21.9369,478,1.5419
21.9413,399,1.2871
21.9456,375,1.2097
21.9499,458,1.4774
21.9543,549,1.7710
21.9586,539,1.7387
21.9629,498,1.6065
21.9673,514,1.6581
21.9716,547,1.7645
21.9771,500,1.6129
21.9826,427,1.3774
21.9870,446,1.4387
21.9913,521,1.6806
21.9956,554,1.7871
21.9999,524,1.6903
22.0041,506,1.6323
22.0084,549,1.7710
22.0126,603,1.9452
22.0169,602,1.9419
22.0212,558,1.8000
22.0255,565,1.8226
22.0297,634,2.0452
22.0340,679,2.1903
22.0383,638,2.0581
22.0425,571,1.8419
22.0468,551,1.7774
22.0510,594,1.9161
22.0553,592,1.9097
22.0596,528,1.7032
22.0638,477,1.5387
22.0681,505,1.6290
22.0723,560,1.8065
22.0767,568,1.8323
22.0811,531,1.7129
22.0854,517,1.6677
22.0897,556,1.7935
22.0939,590,1.9032
22.0983,553,1.7839
22.1026,497,1.6032
22.1069,522,1.6839
22.1111,592,1.9097
22.1154,592,1.9097
22.1197,531,1.7129
22.1240,487,1.5710
22.1283,516,1.6645
22.1326,573,1.8484
22.1369,564,1.8194
22.1412,512,1.6516
22.1454,498,1.6065
22.1497,546,1.7613
22.1540,565,1.8226
22.1583,521,1.6806
22.1626,497,1.6032
22.1668,525,1.6935
22.1711,567,1.8290
22.1754,560,1.8065
22.1797,501,1.6161
22.1840,449,1.4484
22.1883,462,1.4903
22.1926,511,1.6484
22.1969,502,1.6194
22.2011,455,1.4677
22.2055,448,1.4452
22.2097,501,1.6161
22.2140,516,1.6645
22.2183,462,1.4903
22.2226,419,1.3516
22.2269,428,1.3806
22.2312,486,1.5677
22.2355,504,1.6258
22.2397,471,1.5194
22.2441,482,1.5548
22.2483,534,1.7226
22.2526,570,1.8387
22.2569,555,1.7903
22.2612,498,1.6065
22.2655,489,1.5774
22.2698,548,1.7677
22.2741,575,1.8548
22.2784,507,1.6355
22.2827,430,1.3871
22.2870,443,1.4290
22.2913,504,1.6258
22.2956,505,1.6290
22.2998,464,1.4968
22.3041,432,1.3935
22.3085,477,1.5387
22.3128,522,1.6839
22.3171,510,1.6452
22.3213,463,1.4935
22.3257,454,1.4645
22.3300,507,1.6355
22.3342,526,1.6968
22.3385,470,1.5161
22.3428,412,1.3290
22.3471,427,1.3774
22.3514,499,1.6097
22.3557,521,1.6806
22.3600,477,1.5387
22.3643,446,1.4387
22.3686,473,1.5258
22.3729,501,1.6161
22.3772,479,1.5452
22.3815,430,1.3871
22.3857,422,1.3613
22.3901,521,1.6806
22.3944,625,2.0161
22.3986,672,2.1677
22.4029,747,2.4097
22.4072,843,2.7194
22.4116,864,2.7871
22.4158,734,2.3677
22.4201,542,1.7484
22.4244,422,1.3613
22.4287,435,1.4032
22.4330,499,1.6097
22.4373,499,1.6097
22.4416,450,1.4516
22.4459,438,1.4129
22.4502,503,1.6226
22.4545,536,1.7290
22.4588,511,1.6484
22.4631,477,1.5387
22.4673,499,1.6097
22.4716,529,1.7065
22.4759,515,1.6613
22.4803,444,1.4323
22.4845,421,1.3581
22.4888,489,1.5774
22.4931,556,1.7935
22.4974,526,1.6968
22.5017,443,1.4290
22.5060,449,1.4484
22.5103,514,1.6581
22.5147,536,1.7290
22.5189,480,1.5484
22.5232,437,1.4097
22.5275,462,1.4903
22.5318,504,1.6258
22.5361,506,1.6323
22.5404,460,1.4839
22.5447,437,1.4097
22.5490,475,1.5323
22.5533,514,1.6581
22.5576,476,1.5355
22.5619,428,1.3806
22.5662,427,1.3774
22.5705,490,1.5806
22.5748,534,1.7226
22.5791,496,1.6000
22.5835,469,1.5129
22.5879,511,1.6484
22.5923,556,1.7935
22.5967,538,1.7355
22.6010,480,1.5484
22.6053,455,1.4677
22.6096,496,1.6000
22.6139,531,1.7129
22.6181,496,1.6000
22.6224,438,1.4129
22.6268,456,1.4710
22.6311,513,1.6548
22.6354,529,1.7065
22.6397,485,1.5645
22.6439,468,1.5097
22.6482,514,1.6581
22.6525,557,1.7968
22.6569,518,1.6710
22.6612,441,1.4226
22.6655,428,1.3806
22.6697,483,1.5581
22.6740,524,1.6903
22.6783,503,1.6226
22.6826,448,1.4452
22.6869,452,1.4581
22.6912,512,1.6516
22.6955,547,1.7645
22.6998,516,1.6645
22.7041,471,1.5194
22.7083,492,1.5871
22.7127,513,1.6548
22.7170,485,1.5645
22.7213,436,1.4065
22.7256,426,1.3742
22.7299,470,1.5161
22.7342,510,1.6452
22.7385,479,1.5452
22.7428,440,1.4194
22.7471,441,1.4226
22.7514,480,1.5484
22.7557,499,1.6097
22.7600,467,1.5065
22.7643,455,1.4677
22.7686,476,1.5355
22.7728,496,1.6000
22.7772,469,1.5129
22.7815,428,1.3806
22.7858,440,1.4194
22.7901,520,1.6774
22.7943,559,1.8032
22.7987,500,1.6129
22.8029,426,1.3742
22.8072,427,1.3774
22.8115,479,1.5452
22.8158,493,1.5903
22.8201,451,1.4548
22.8244,420,1.3548
22.8287,457,1.4742
22.8330,509,1.6419
22.8373,485,1.5645
22.8416,427,1.3774
22.8459,437,1.4097
22.8502,513,1.6548
22.8545,570,1.8387
22.8588,543,1.7516
22.8631,506,1.6323
22.8674,534,1.7226
22.8717,585,1.8871
22.8760,566,1.8258
22.8803,490,1.5806
22.8847,459,1.4806
22.8891,510,1.6452
22.8934,559,1.8032
22.8977,542,1.7484
22.9020,507,1.6355
22.9063,529,1.7065
22.9106,581,1.8742
22.9149,591,1.9065
22.9192,545,1.7581
22.9235,496,1.6000
22.9278,509,1.6419
22.9321,564,1.8194
22.9364,543,1.7516
22.9407,479,1.5452
22.9450,468,1.5097
22.9493,526,1.6968
22.9536,572,1.8452
22.9579,535,1.7258
22.9622,471,1.5194
22.9665,474,1.5290
22.9708,532,1.7161
22.9751,561,1.8097
22.9794,544,1.7548
22.9836,520,1.6774
22.9879,543,1.7516
22.9922,584,1.8839
22.9965,573,1.8484
23.0008,523,1.6871
23.0051,503,1.6226
23.0094,522,1.6839
23.0136,516,1.6645
23.0179,504,1.6258
23.0222,472,1.5226
23.0265,463,1.4935
23.0308,486,1.5677
23.0352,481,1.5516
23.0394,439,1.4161
23.0437,398,1.2839
23.0480,416,1.3419
23.0523,453,1.4613
23.0567,442,1.4258
23.0609,400,1.2903
23.0652,395,1.2742
23.0696,455,1.4677
23.0739,494,1.5935
23.0781,468,1.5097
23.0825,428,1.3806
23.0868,463,1.4935
23.0911,529,1.7065
23.0954,543,1.7516
23.0997,511,1.6484
23.1039,484,1.5613
23.1083,526,1.6968
23.1126,597,1.9258
23.1169,636,2.0516
23.1211,669,2.1581
23.1254,741,2.3903
23.1297,838,2.7032
23.1340,868,2.8000
23.1383,753,2.4290
23.1426,605,1.9516
23.1469,534,1.7226
23.1512,525,1.6935
23.1555,503,1.6226
23.1597,464,1.4968
23.1640,448,1.4452
23.1683,477,1.5387
23.1726,517,1.6677
23.1769,498,1.6065
23.1812,425,1.3710
23.1855,394,1.2710
23.1898,443,1.4290
23.1941,496,1.6000
23.1984,475,1.5323
23.2027,429,1.3839
23.2070,446,1.4387
23.2113,483,1.5581
23.2156,473,1.5258
23.2199,441,1.4226
23.2242,447,1.4419
23.2285,507,1.6355
23.2328,552,1.7806
23.2371,542,1.7484
23.2414,495,1.5968
23.2457,473,1.5258
23.2499,507,1.6355
23.2543,538,1.7355
23.2585,528,1.7032
23.2628,506,1.6323
23.2671,526,1.6968
23.2714,567,1.8290
23.2757,558,1.8000
23.2800,507,1.6355
23.2843,500,1.6129
23.2886,582,1.8774
23.2930,652,2.1032
23.2973,624,2.0129
23.3016,553,1.7839
23.3059,534,1.7226
23.3101,585,1.8871
23.3145,614,1.9806
23.3188,571,1.8419
23.3231,528,1.7032
23.3274,554,1.7871
23.3317,624,2.0129
23.3360,650,2.0968
23.3403,613,1.9774
23.3446,596,1.9226
23.3490,662,2.1355
23.3533,702,2.2645
23.3576,657,2.1194
23.3619,599,1.9323
23.3662,611,1.9710
23.3705,665,2.1452
23.3748,677,2.1839
23.3795,611,1.9710
23.3840,557,1.7968
23.3883,592,1.9097
23.3926,665,2.1452
23.3969,655,2.1129
23.4011,585,1.8871
23.4054,575,1.8548
23.4097,611,1.9710
23.4139,614,1.9806
23.4182,555,1.7903
23.4225,489,1.5774
23.4268,474,1.5290
23.4311,520,1.6774
23.4353,541,1.7452
23.4396,498,1.6065
23.4439,472,1.5226
23.4481,528,1.7032
23.4524,559,1.8032
23.4567,524,1.6903
23.4609,460,1.4839
23.4652,454,1.4645
23.4695,520,1.6774
23.4737,576,1.8581
23.4780,544,1.7548
23.4824,482,1.5548
23.4868,479,1.5452
23.4911,506,1.6323
23.4954,512,1.6516
23.4996,486,1.5677
23.5039,474,1.5290
23.5081,496,1.6000
23.5123,536,1.7290
23.5167,521,1.6806
23.5210,452,1.4581
23.5253,445,1.4355
23.5296,509,1.6419
23.5339,525,1.6935
23.5382,463,1.4935
23.5425,394,1.2710
23.5468,411,1.3258
23.5511,501,1.6161
23.5554,508,1.6387
23.5597,375,1.2097
23.5640,288,0.9290
23.5683,321,1.0355
23.5726,381,1.2290
23.5769,385,1.2419
23.5812,335,1.0806
23.5854,339,1.0935
23.5898,406,1.3097
23.5941,436,1.4065
23.5984,389,1.2548
23.6028,339,1.0935
23.6071,351,1.1323
23.6114,384,1.2387
23.6157,378,1.2194
23.6201,327,1.0548
23.6244,295,0.9516
23.6287,325,1.0484
23.6331,370,1.1935
23.6374,348,1.1226
23.6418,269,0.8677
23.6461,252,0.8129
23.6504,313,1.0097
23.6548,365,1.1774
23.6591,353,1.1387
23.6634,335,1.0806
23.6678,359,1.1581
23.6721,396,1.2774
23.6764,402,1.2968
23.6808,342,1.1032
23.6852,302,0.9742
23.6895,364,1.1742
23.6938,402,1.2968
23.6981,361,1.1645
23.7024,312,1.0065
23.7068,304,0.9806
23.7111,354,1.1419
23.7154,383,1.2355
23.7197,347,1.1194
23.7240,332,1.0710
23.7283,360,1.1613
23.7326,395,1.2742
23.7368,387,1.2484
23.7412,343,1.1065
23.7455,325,1.0484
23.7498,367,1.1839
23.7540,397,1.2806
23.7583,380,1.2258
23.7626,349,1.1258
23.7669,369,1.1903
23.7712,426,1.3742
23.7755,441,1.4226
23.7798,385,1.2419
23.7842,346,1.1161
23.7886,378,1.2194
23.7930,438,1.4129
23.7973,451,1.4548
23.8015,454,1.4645
23.8058,539,1.7387
23.8101,705,2.2742
23.8144,835,2.6935
23.8187,827,2.6677
23.8230,690,2.2258
23.8273,557,1.7968
23.8316,497,1.6032
23.8359,450,1.4516
23.8402,419,1.3516
23.8445,426,1.3742
23.8488,487,1.5710
23.8532,533,1.7194
23.8574,493,1.5903
23.8617,409,1.3194
23.8660,408,1.3161
23.8703,474,1.5290
23.8746,518,1.6710
23.8789,480,1.5484
23.8832,421,1.3581
23.8875,420,1.3548
23.8918,471,1.5194
23.8962,489,1.5774
23.9005,450,1.4516
23.9048,447,1.4419
23.9092,522,1.6839
23.9135,570,1.8387
23.9178,536,1.7290
23.9222,482,1.5548
23.9265,499,1.6097
23.9308,567,1.8290
23.9352,567,1.8290
23.9395,492,1.5871
23.9438,446,1.4387
23.9482,457,1.4742
23.9525,476,1.5355
23.9568,454,1.4645
23.9612,419,1.3516
23.9655,426,1.3742
23.9698,488,1.5742
23.9742,523,1.6871
23.9785,504,1.6258
23.9828,466,1.5032
23.9872,481,1.5516
23.9915,532,1.7161
23.9958,545,1.7581
24.0001,505,1.6290
24.0044,476,1.5355
24.0087,516,1.6645
24.0130,569,1.8355
24.0173,543,1.7516
24.0216,480,1.5484
24.0259,457,1.4742
24.0302,488,1.5742
24.0345,507,1.6355
24.0388,485,1.5645
24.0431,464,1.4968
24.0473,504,1.6258
24.0516,585,1.8871
24.0559,605,1.9516
24.0602,553,1.7839
24.0645,528,1.7032
24.0688,591,1.9065
24.0732,654,2.1097
24.0775,613,1.9774
24.0818,535,1.7258
24.0861,534,1.7226
24.0904,590,1.9032
24.0947,609,1.9645
24.0991,562,1.8129
24.1034,516,1.6645
24.1077,545,1.7581
24.1121,591,1.9065
24.1164,556,1.7935
24.1207,483,1.5581
24.1251,483,1.5581
24.1294,531,1.7129
24.1337,548,1.7677
24.1381,504,1.6258
24.1424,448,1.4452
24.1468,461,1.4871
24.1511,521,1.6806
24.1555,565,1.8226
24.1598,531,1.7129
24.1641,509,1.6419
24.1685,535,1.7258
24.1728,582,1.8774
24.1771,592,1.9097
24.1815,535,1.7258
24.1858,505,1.6290
24.1901,545,1.7581
24.1945,581,1.8742
24.1988,551,1.7774
24.2031,508,1.6387
24.2074,525,1.6935
24.2117,603,1.9452
24.2160,622,2.0065
24.2203,549,1.7710
24.2246,496,1.6000
24.2289,535,1.7258
24.2332,574,1.8516
24.2375,555,1.7903
24.2417,518,1.6710
24.2460,524,1.6903
24.2503,575,1.8548
24.2546,582,1.8774
24.2589,523,1.6871
24.2632,482,1.5548
24.2675,491,1.5839
24.2718,523,1.6871
24.2761,519,1.6742
24.2804,485,1.5645
24.2847,457,1.4742
24.2890,488,1.5742
24.2933,532,1.7161
24.2977,505,1.6290
24.3020,463,1.4935
24.3063,476,1.5355
24.3107,531,1.7129
24.3150,551,1.7774
24.3194,512,1.6516
24.3237,478,1.5419
24.3280,504,1.6258
24.3323,555,1.7903
24.3368,559,1.8032
24.3411,537,1.7323
24.3454,550,1.7742
24.3498,614,1.9806
24.3541,656,2.1161
24.3584,629,2.0290
24.3628,550,1.7742
24.3671,506,1.6323
24.3714,523,1.6871
24.3758,528,1.7032
24.3801,472,1.5226
24.3846,420,1.3548
24.3890,446,1.4387
24.3934,487,1.5710
24.3978,472,1.5226
24.4021,444,1.4323
24.4064,441,1.4226
24.4106,490,1.5806
24.4149,513,1.6548
24.4193,494,1.5935
24.4235,470,1.5161
24.4278,496,1.6000
24.4321,536,1.7290
24.4364,535,1.7258
24.4407,491,1.5839
24.4450,472,1.5226
24.4493,518,1.6710
24.4536,545,1.7581
24.4579,523,1.6871
24.4622,500,1.6129
24.4665,552,1.7806
24.4708,680,2.1935
24.4751,803,2.5903
24.4794,851,2.7452
24.4837,866,2.7935
24.4880,861,2.7774
24.4923,799,2.5774
24.4967,669,2.1581
24.5010,547,1.7645
24.5054,497,1.6032
24.5097,528,1.7032
24.5140,552,1.7806
24.5183,516,1.6645
24.5227,464,1.4968
24.5270,489,1.5774
24.5313,581,1.8742
24.5357,632,2.0387
24.5400,618,1.9935
24.5443,615,1.9839
24.5487,680,2.1935
24.5530,760,2.4516
24.5573,764,2.4645
24.5617,721,2.3258
24.5660,727,2.3452
24.5703,797,2.5710
24.5747,844,2.7226
24.5790,805,2.5968
24.5833,733,2.3645
24.5877,724,2.3355
24.5921,743,2.3968
24.5964,698,2.2516
24.6008,614,1.9806
24.6051,581,1.8742
24.6094,612,1.9742
24.6137,632,2.0387
24.6179,601,1.9387
24.6223,556,1.7935
24.6265,535,1.7258
24.6308,586,1.8903
24.6351,610,1.9677
24.6394,558,1.8000
24.6437,503,1.6226
24.6480,528,1.7032
24.6523,566,1.8258
24.6567,537,1.7323
24.6610,468,1.5097
24.6653,447,1.4419
24.6696,515,1.6613
24.6739,571,1.8419
24.6782,541,1.7452
24.6827,488,1.5742
24.6871,509,1.6419
24.6914,552,1.7806
24.6957,556,1.7935
24.7000,506,1.6323
24.7043,472,1.5226
24.7086,496,1.6000
24.7129,558,1.8000
24.7172,559,1.8032
24.7215,492,1.5871
24.7258,462,1.4903
24.7301,509,1.6419
24.7344,531,1.7129
24.7387,472,1.5226
24.7430,415,1.3387
24.7473,439,1.4161
24.7516,489,1.5774
24.7559,469,1.5129
24.7602,372,1.2000
24.7645,294,0.9484
24.7688,308,0.9935
24.7731,365,1.1774
24.7774,381,1.2290
24.7817,351,1.1323
24.7860,360,1.1613
24.7903,427,1.3774
24.7946,481,1.5516
24.7989,449,1.4484
24.8032,406,1.3097
24.8076,427,1.3774
24.8119,488,1.5742
24.8162,499,1.6097
24.8206,458,1.4774
24.8249,446,1.4387
24.8292,491,1.5839
24.8336,523,1.6871
24.8379,491,1.5839
24.8422,436,1.4065
24.8466,436,1.4065
24.8509,484,1.5613
24.8552,473,1.5258
24.8596,376,1.2129
24.8639,284,0.9161
24.8682,267,0.8613
24.8726,270,0.8710
24.8769,264,0.8516
24.8812,263,0.8484
24.8855,314,1.0129
24.8899,406,1.3097
24.8943,450,1.4516
24.8986,395,1.2742
24.9030,350,1.1290
24.9073,419,1.3516
24.9116,521,1.6806
24.9159,547,1.7645
24.9202,499,1.6097
24.9244,464,1.4968
24.9287,512,1.6516
24.9330,572,1.8452
24.9373,560,1.8065
24.9416,507,1.6355
24.9459,502,1.6194
24.9502,556,1.7935
24.9545,569,1.8355
24.9588,529,1.7065
24.9631,500,1.6129
24.9674,540,1.7419
24.9717,608,1.9613
24.9760,610,1.9677
24.9803,537,1.7323
24.9846,484,1.5613
24.9889,496,1.6000
24.9932,517,1.6677
24.9975,502,1.6194
25.0018,465,1.5000
25.0061,483,1.5581
25.0105,539,1.7387
25.0148,564,1.8194
25.0195,521,1.6806
25.0240,496,1.6000
25.0285,546,1.7613
25.0330,608,1.9613
25.0375,597,1.9258
25.0421,536,1.7290
25.0469,525,1.6935
25.0514,585,1.8871
25.0558,605,1.9516
25.0601,534,1.7226
25.0644,502,1.6194
25.0687,537,1.7323
25.0731,577,1.8613
25.0774,566,1.8258
25.0817,505,1.6290
25.0861,493,1.5903
25.0904,555,1.7903
25.0947,601,1.9387
25.0991,596,1.9226
25.1033,561,1.8097
25.1076,574,1.8516
25.1119,593,1.9129
25.1162,565,1.8226
25.1204,501,1.6161
25.1247,481,1.5516
25.1290,517,1.6677
25.1332,547,1.7645
25.1375,513,1.6548
25.1418,474,1.5290
25.1460,465,1.5000
25.1506,527,1.7000
25.1550,575,1.8548
25.1592,539,1.7387
25.1635,480,1.5484
25.1677,490,1.5806
25.1720,526,1.6968
25.1763,504,1.6258
25.1806,460,1.4839
25.1848,487,1.5710
25.1891,634,2.0452
25.1933,813,2.6226
25.1977,899,2.9000
25.2020,874,2.8194
25.2064,798,2.5742
25.2107,710,2.2903
25.2151,606,1.9548
25.2195,477,1.5387
25.2238,419,1.3516
25.2281,486,1.5677
25.2324,585,1.8871
25.2368,592,1.9097
25.2412,529,1.7065
25.2455,500,1.6129
25.2498,542,1.7484
25.2542,566,1.8258
25.2585,519,1.6742
25.2628,443,1.4290
25.2672,422,1.3613
25.2715,459,1.4806
25.2759,469,1.5129
25.2803,419,1.3516
25.2847,426,1.3742
25.2892,494,1.5935
25.2935,555,1.7903
25.2980,543,1.7516
25.3024,511,1.6484
25.3067,536,1.7290
25.3110,600,1.9355
25.3153,623,2.0097
25.3196,578,1.8645
25.3239,524,1.6903
25.3282,523,1.6871
25.3325,560,1.8065
25.3368,550,1.7742
25.3411,511,1.6484
25.3454,489,1.5774
25.3497,531,1.7129
25.3540,569,1.8355
25.3583,548,1.7677
25.3626,476,1.5355
25.3669,468,1.5097
25.3712,523,1.6871
25.3755,539,1.7387
25.3798,483,1.5581
25.3842,455,1.4677
25.3885,511,1.6484
25.3928,578,1.8645
25.3972,565,1.8226
25.4015,516,1.6645
25.4058,532,1.7161
25.4101,596,1.9226
25.4144,632,2.0387
25.4187,594,1.9161
25.4230,547,1.7645
25.4273,558,1.8000
25.4316,600,1.9355
25.4360,594,1.9161
25.4403,524,1.6903
25.4446,467,1.5065
25.4489,505,1.6290
25.4532,573,1.8484
25.4575,587,1.8935
25.4619,550,1.7742
25.4662,528,1.7032
25.4705,546,1.7613
25.4749,560,1.8065
25.4792,519,1.6742
25.4838,471,1.5194
25.4886,511,1.6484
25.4937,567,1.8290
25.4982,530,1.7097
25.5027,447,1.4419
25.5071,424,1.3677
25.5118,474,1.5290
25.5162,494,1.5935
25.5207,452,1.4581
25.5258,442,1.4258
25.5306,501,1.6161
25.5350,542,1.7484
25.5400,506,1.6323
25.5446,483,1.5581
25.5491,521,1.6806
25.5535,532,1.7161
25.5580,470,1.5161
25.5627,421,1.3581
25.5671,454,1.4645
25.5715,533,1.7194
25.5764,531,1.7129
25.5808,468,1.5097
25.5853,446,1.4387
25.5897,515,1.6613
25.5941,558,1.8000
25.5985,517,1.6677
25.6029,476,1.5355
25.6081,532,1.7161
25.6127,602,1.9419
25.6172,568,1.8323
25.6217,500,1.6129
25.6261,489,1.5774
25.6305,555,1.7903
25.6351,573,1.8484
25.6396,490,1.5806
25.6441,425,1.3710
25.6485,462,1.4903
25.6529,517,1.6677
25.6574,489,1.5774
25.6619,406,1.3097
25.6664,387,1.2484
25.6709,448,1.4452
25.6752,471,1.5194
25.6795,436,1.4065
25.6837,405,1.3065
25.6879,428,1.3806
25.6922,494,1.5935
25.6964,499,1.6097
25.7007,430,1.3871
25.7050,396,1.2774
25.7091,428,1.3806
25.7133,470,1.5161
25.7175,474,1.5290
25.7217,456,1.4710
25.7258,466,1.5032
25.7300,524,1.6903
25.7342,571,1.8419
25.7384,536,1.7290
25.7425,465,1.5000
25.7467,444,1.4323
25.7509,491,1.5839
25.7551,530,1.7097
25.7592,514,1.6581
25.7634,500,1.6129
25.7676,528,1.7032
25.7717,562,1.8129
25.7759,554,1.7871
25.7801,504,1.6258
25.7842,491,1.5839
25.7886,547,1.7645
25.7931,592,1.9097
25.7976,566,1.8258
25.8021,518,1.6710
25.8065,553,1.7839
25.8110,629,2.0290
25.8155,641,2.0677
25.8199,564,1.8194
25.8243,496,1.6000
25.8288,511,1.6484
25.8332,551,1.7774
25.8375,550,1.7742
25.8418,505,1.6290
25.8461,495,1.5968
25.8503,528,1.7032
25.8545,555,1.7903
25.8588,512,1.6516
25.8630,475,1.5323
25.8671,488,1.5742
25.8713,558,1.8000
25.8756,588,1.8968
25.8798,527,1.7000
25.8840,463,1.4935
25.8881,494,1.5935
25.8923,560,1.8065
25.8966,574,1.8516
25.9008,513,1.6548
25.9050,482,1.5548
25.9092,529,1.7065
25.9134,591,1.9065
25.9176,575,1.8548
25.9218,528,1.7032
25.9260,574,1.8516
25.9302,727,2.3452
25.9344,865,2.7903
25.9386,877,2.8290
25.9428,763,2.4613
25.9470,647,2.0871
25.9512,587,1.8935
25.9554,528,1.7032
25.9597,436,1.4065
25.9640,407,1.3129
25.9683,456,1.4710
25.9726,509,1.6419
25.9769,511,1.6484
25.9813,462,1.4903
25.9856,445,1.4355
25.9899,483,1.5581
25.9942,526,1.6968
25.9985,504,1.6258
26.0030,446,1.4387
26.0072,433,1.3968
26.0114,471,1.5194
26.0156,486,1.5677
26.0198,435,1.4032
26.0240,418,1.3484
26.0282,486,1.5677
26.0323,559,1.8032
26.0365,558,1.8000
26.0407,492,1.5871
26.0449,450,1.4516
26.0490,488,1.5742
26.0532,535,1.7258
26.0573,507,1.6355
26.0615,444,1.4323
26.0657,445,1.4355
26.0698,527,1.7000
26.0740,584,1.8839
26.0781,560,1.8065
26.0823,516,1.6645
26.0865,518,1.6710
26.0906,548,1.7677
26.0948,568,1.8323
26.0990,549,1.7710
26.1031,518,1.6710
26.1073,531,1.7129
26.1115,596,1.9226
26.1156,623,2.0097
26.1198,571,1.8419
26.1240,543,1.7516
26.1281,583,1.8806
26.1323,634,2.0452
26.1365,619,1.9968
26.1406,555,1.7903
26.1448,526,1.6968
26.1490,567,1.8290
26.1532,625,2.0161
26.1574,620,2.0000
26.1615,547,1.7645
26.1657,514,1.6581
26.1699,571,1.8419
26.1740,622,2.0065
26.1783,586,1.8903
26.1830,514,1.6581
26.1872,529,1.7065
26.1915,600,1.9355
26.1956,624,2.0129
26.1998,573,1.8484
26.2040,527,1.7000
26.2082,546,1.7613
26.2123,585,1.8871
26.2165,580,1.8710
26.2206,514,1.6581
26.2248,476,1.5355
26.2290,495,1.5968
26.2331,549,1.7710
26.2373,551,1.7774
26.2415,481,1.5516
26.2457,434,1.4000
26.2499,461,1.4871
26.2540,505,1.6290
26.2582,503,1.6226
