time_s,adc_raw,voltage
0.0000,466,1.5032
0.0044,477,1.5387
0.0087,520,1.6774
0.0130,522,1.6839
0.0174,481,1.5516
0.0217,461,1.4871
0.0261,497,1.6032
0.0307,530,1.7097
0.0351,507,1.6355
0.0396,472,1.5226
0.0441,492,1.5871
0.0486,535,1.7258
0.0530,543,1.7516
0.0574,509,1.6419
0.0618,493,1.5903
0.0662,538,1.7355
0.0705,576,1.8581
0.0749,555,1.7903
0.0793,504,1.6258
0.0837,499,1.6097
0.0881,536,1.7290
0.0925,540,1.7419
0.0969,496,1.6000
0.1013,464,1.4968
0.1056,489,1.5774
0.1100,517,1.6677
0.1144,499,1.6097
0.1188,460,1.4839
0.1231,460,1.4839
0.1275,500,1.6129
0.1318,519,1.6742
0.1362,487,1.5710
0.1405,451,1.4548
0.1448,459,1.4806
0.1492,488,1.5742
0.1535,481,1.5516
0.1579,446,1.4387
0.1622,468,1.5097
0.1668,577,1.8613
0.1713,693,2.2355
0.1760,782,2.5226
0.1808,919,2.9645
0.1854,1000,3.2258
0.1898,1003,3.2355
0.1942,1003,3.2355
0.1986,998,3.2194
0.2038,825,2.6613
0.2083,657,2.1194
0.2131,508,1.6387
0.2179,385,1.2419
0.2226,357,1.1516
0.2298,427,1.3774
0.2346,422,1.3613
0.2391,391,1.2613
0.2435,395,1.2742
0.2478,438,1.4129
0.2522,454,1.4645
0.2566,411,1.3258
0.2610,383,1.2355
0.2653,415,1.3387
0.2704,463,1.4935
0.2748,446,1.4387
0.2792,411,1.3258
0.2835,412,1.3290
0.2878,453,1.4613
0.2920,474,1.5290
0.2963,445,1.4355
0.3005,420,1.3548
0.3048,437,1.4097
0.3090,479,1.5452
0.3132,481,1.5516
0.3175,445,1.4355
0.3217,434,1.4000
0.3259,471,1.5194
0.3302,500,1.6129
0.3344,488,1.5742
0.3387,453,1.4613
0.3430,451,1.4548
0.3472,495,1.5968
0.3515,522,1.6839
0.3557,491,1.5839
0.3601,462,1.4903
0.3644,484,1.5613
0.3687,526,1.6968
0.3732,535,1.7258
0.3775,500,1.6129
0.3820,484,1.5613
0.3864,521,1.6806
0.3908,553,1.7839
0.3951,532,1.7161
0.3994,496,1.6000
0.4038,507,1.6355
0.4080,549,1.7710
0.4123,560,1.8065
0.4167,520,1.6774
0.4211,492,1.5871
0.4255,521,1.6806
0.4300,558,1.8000
0.4354,525,1.6935
0.4398,482,1.5548
0.4443,492,1.5871
0.4487,522,1.6839
0.4532,515,1.6613
0.4577,467,1.5065
0.4622,453,1.4613
0.4668,492,1.5871
0.4711,514,1.6581
0.4756,479,1.5452
0.4801,441,1.4226
0.4846,456,1.4710
0.4890,498,1.6065
0.4934,501,1.6161
0.4977,461,1.4871
0.5021,442,1.4258
0.5068,484,1.5613
0.5113,518,1.6710
0.5157,490,1.5806
0.5201,452,1.4581
0.5244,467,1.5065
0.5288,513,1.6548
0.5332,520,1.6774
0.5375,485,1.5645
0.5419,474,1.5290
0.5469,508,1.6387
0.5512,537,1.7323
0.5556,510,1.6452
0.5600,481,1.5516
0.5644,497,1.6032
0.5688,538,1.7355
0.5732,536,1.7290
0.5776,496,1.6000
0.5820,482,1.5548
0.5864,515,1.6613
0.5908,535,1.7258
0.5952,509,1.6419
0.6002,467,1.5065
0.6045,478,1.5419
0.6089,514,1.6581
0.6133,517,1.6677
0.6177,479,1.5452
0.6221,457,1.4742
0.6265,499,1.6097
0.6309,531,1.7129
0.6353,503,1.6226
0.6398,464,1.4968
0.6442,478,1.5419
0.6486,514,1.6581
0.6531,516,1.6645
0.6575,482,1.5548
0.6624,463,1.4935
0.6668,500,1.6129
0.6713,525,1.6935
0.6757,495,1.5968
0.6801,463,1.4935
0.6845,481,1.5516
0.6889,515,1.6613
0.6933,510,1.6452
0.6977,465,1.5000
0.7021,450,1.4516
0.7065,495,1.5968
0.7109,525,1.6935
0.7154,496,1.6000
0.7198,457,1.4742
0.7242,470,1.5161
0.7286,517,1.6677
0.7330,530,1.7097
0.7374,501,1.6161
0.7417,483,1.5581
0.7461,512,1.6516
0.7506,540,1.7419
0.7550,524,1.6903
0.7594,494,1.5935
0.7638,512,1.6516
0.7682,554,1.7871
0.7726,558,1.8000
0.7770,511,1.6484
0.7814,480,1.5484
0.7858,495,1.5968
0.7902,521,1.6806
0.7946,502,1.6194
0.7990,460,1.4839
0.8034,459,1.4806
0.8078,498,1.6065
0.8122,518,1.6710
0.8166,483,1.5581
0.8209,457,1.4742
0.8253,485,1.5645
0.8297,513,1.6548
0.8341,497,1.6032
0.8385,447,1.4419
0.8428,434,1.4000
0.8473,469,1.5129
0.8517,496,1.6000
0.8561,503,1.6226
0.8604,539,1.7387
0.8648,649,2.0935
0.8691,814,2.6258
0.8735,960,3.0968
0.8778,1000,3.2258
0.8822,1001,3.2290
0.8865,1000,3.2258
0.8909,998,3.2194
0.8953,887,2.8613
0.8997,661,2.1323
0.9040,510,1.6452
0.9088,444,1.4323
0.9132,409,1.3194
0.9176,374,1.2065
0.9219,368,1.1871
0.9263,410,1.3226
0.9307,446,1.4387
0.9351,423,1.3645
0.9394,387,1.2484
0.9438,396,1.2774
0.9487,443,1.4290
0.9531,452,1.4581
0.9574,412,1.3290
0.9618,396,1.2774
0.9661,432,1.3935
0.9704,462,1.4903
0.9747,442,1.4258
0.9790,407,1.3129
0.9833,410,1.3226
0.9876,455,1.4677
0.9921,476,1.5355
0.9964,447,1.4419
1.0006,417,1.3452
1.0048,440,1.4194
1.0090,489,1.5774
1.0132,496,1.6000
1.0175,458,1.4774
1.0217,439,1.4161
1.0259,471,1.5194
1.0302,501,1.6161
1.0345,489,1.5774
1.0388,455,1.4677
1.0430,453,1.4613
1.0472,495,1.5968
1.0519,526,1.6968
1.0562,496,1.6000
1.0604,470,1.5161
1.0646,494,1.5935
1.0689,537,1.7323
1.0731,547,1.7645
1.0774,509,1.6419
1.0816,487,1.5710
1.0858,520,1.6774
1.0900,556,1.7935
1.0943,542,1.7484
1.0985,502,1.6194
1.1028,497,1.6032
1.1070,536,1.7290
1.1112,563,1.8161
1.1154,535,1.7258
1.1197,491,1.5839
1.1240,498,1.6065
1.1282,536,1.7290
1.1324,547,1.7645
1.1366,502,1.6194
1.1409,469,1.5129
1.1451,495,1.5968
1.1495,529,1.7065
1.1539,517,1.6677
1.1581,475,1.5323
1.1626,458,1.4774
1.1668,489,1.5774
1.1711,513,1.6548
1.1753,487,1.5710
1.1796,451,1.4548
1.1838,460,1.4839
1.1881,499,1.6097
1.1923,512,1.6516
1.1965,481,1.5516
1.2008,454,1.4645
1.2050,477,1.5387
1.2092,517,1.6677
1.2135,522,1.6839
1.2177,485,1.5645
1.2220,466,1.5032
1.2262,500,1.6129
1.2305,532,1.7161
1.2347,520,1.6774
1.2389,480,1.5484
1.2432,474,1.5290
1.2474,511,1.6484
1.2516,534,1.7226
1.2559,507,1.6355
1.2602,475,1.5323
1.2644,489,1.5774
1.2687,527,1.7000
1.2729,534,1.7226
1.2771,496,1.6000
1.2814,468,1.5097
1.2856,502,1.6194
1.2900,536,1.7290
1.2942,520,1.6774
1.2985,477,1.5387
1.3027,465,1.5000
1.3070,503,1.6226
1.3112,525,1.6935
1.3154,502,1.6194
1.3197,470,1.5161
1.3240,475,1.5323
1.3282,511,1.6484
1.3324,522,1.6839
1.3366,481,1.5516
1.3409,450,1.4516
1.3451,475,1.5323
1.3493,510,1.6452
1.3536,511,1.6484
1.3580,474,1.5290
1.3623,461,1.4871
1.3665,498,1.6065
1.3708,528,1.7032
1.3750,504,1.6258
1.3792,462,1.4903
1.3835,462,1.4903
1.3877,504,1.6258
1.3919,532,1.7161
1.3961,505,1.6290
1.4004,473,1.5258
1.4046,496,1.6000
1.4088,542,1.7484
1.4130,552,1.7806
1.4173,530,1.7097
1.4215,511,1.6484
1.4259,535,1.7258
1.4302,554,1.7871
1.4345,533,1.7194
1.4389,487,1.5710
1.4432,474,1.5290
1.4475,504,1.6258
1.4519,517,1.6677
1.4562,481,1.5516
1.4605,448,1.4452
1.4648,470,1.5161
1.4691,512,1.6516
1.4735,515,1.6613
1.4778,472,1.5226
1.4822,448,1.4452
1.4865,476,1.5355
1.4908,505,1.6290
1.4950,480,1.5484
1.4993,427,1.3774
1.5036,420,1.3548
1.5079,465,1.5000
1.5122,513,1.6548
1.5164,536,1.7290
1.5207,582,1.8774
1.5249,705,2.2742
1.5292,872,2.8129
1.5334,990,3.1935
1.5376,1000,3.2258
1.5422,1001,3.2290
1.5464,995,3.2097
1.5510,904,2.9161
1.5553,726,2.3419
1.5595,560,1.8065
1.5637,460,1.4839
1.5680,424,1.3677
1.5723,410,1.3226
1.5765,378,1.2194
1.5807,354,1.1419
1.5849,376,1.2129
1.5891,423,1.3645
1.5933,435,1.4032
1.5975,404,1.3032
1.6017,385,1.2419
1.6061,417,1.3452
1.6104,455,1.4677
1.6147,439,1.4161
1.6191,397,1.2806
1.6242,409,1.3194
1.6285,453,1.4613
1.6328,465,1.5000
1.6371,435,1.4032
1.6414,412,1.3290
1.6457,440,1.4194
1.6501,478,1.5419
1.6544,470,1.5161
1.6587,430,1.3871
1.6630,430,1.3871
1.6673,471,1.5194
1.6716,493,1.5903
1.6758,466,1.5032
1.6800,438,1.4129
1.6842,455,1.4677
1.6885,495,1.5968
1.6927,514,1.6581
1.6969,481,1.5516
1.7011,449,1.4484
1.7058,478,1.5419
1.7101,517,1.6677
1.7143,515,1.6613
1.7186,485,1.5645
1.7228,479,1.5452
1.7271,520,1.6774
1.7313,549,1.7710
1.7355,529,1.7065
1.7398,500,1.6129
1.7440,510,1.6452
1.7483,554,1.7871
1.7526,567,1.8290
1.7570,527,1.7000
1.7613,499,1.6097
1.7656,525,1.6935
1.7699,563,1.8161
1.7743,553,1.7839
1.7786,511,1.6484
1.7829,495,1.5968
1.7879,528,1.7032
1.7922,539,1.7387
1.7966,506,1.6323
1.8009,477,1.5387
1.8051,491,1.5839
1.8094,518,1.6710
1.8136,512,1.6516
1.8179,470,1.5161
1.8222,452,1.4581
1.8265,488,1.5742
1.8308,520,1.6774
1.8351,496,1.6000
1.8394,457,1.4742
1.8437,459,1.4806
1.8479,496,1.6000
1.8522,518,1.6710
1.8565,492,1.5871
1.8607,471,1.5194
1.8649,489,1.5774
1.8694,528,1.7032
1.8740,520,1.6774
1.8782,484,1.5613
1.8825,477,1.5387
1.8868,516,1.6645
1.8912,550,1.7742
1.8955,532,1.7161
1.8997,493,1.5903
1.9040,496,1.6000
1.9083,539,1.7387
1.9126,554,1.7871
1.9169,512,1.6516
1.9211,476,1.5355
1.9254,503,1.6226
1.9297,540,1.7419
1.9341,534,1.7226
1.9384,489,1.5774
1.9428,480,1.5484
1.9471,518,1.6710
1.9517,541,1.7452
1.9560,508,1.6387
1.9604,477,1.5387
1.9647,497,1.6032
1.9690,540,1.7419
1.9733,542,1.7484
1.9775,497,1.6032
1.9818,467,1.5065
1.9860,493,1.5903
1.9902,526,1.6968
1.9944,522,1.6839
1.9986,483,1.5581
2.0029,473,1.5258
2.0071,504,1.6258
2.0113,529,1.7065
2.0155,506,1.6323
2.0199,470,1.5161
2.0242,478,1.5419
2.0285,514,1.6581
2.0327,526,1.6968
2.0376,490,1.5806
2.0418,474,1.5290
2.0461,508,1.6387
2.0504,538,1.7355
2.0548,518,1.6710
2.0591,477,1.5387
2.0634,481,1.5516
2.0678,529,1.7065
2.0721,556,1.7935
2.0765,524,1.6903
2.0809,490,1.5806
2.0852,511,1.6484
2.0895,554,1.7871
2.0937,558,1.8000
2.0980,525,1.6935
2.1024,517,1.6677
2.1067,546,1.7613
2.1110,566,1.8258
2.1153,544,1.7548
2.1196,499,1.6097
2.1238,482,1.5548
2.1281,510,1.6452
2.1323,521,1.6806
2.1365,493,1.5903
2.1407,461,1.4871
2.1449,479,1.5452
2.1491,514,1.6581
2.1535,513,1.6548
2.1578,469,1.5129
2.1620,449,1.4484
2.1663,482,1.5548
2.1705,511,1.6484
2.1748,486,1.5677
2.1790,437,1.4097
2.1835,429,1.3839
2.1878,482,1.5548
2.1921,544,1.7548
2.1969,583,1.8806
2.2012,647,2.0871
2.2055,795,2.5645
2.2097,978,3.1548
2.2139,1002,3.2323
2.2182,1003,3.2355
2.2225,1001,3.2290
2.2269,999,3.2226
2.2313,928,2.9935
2.2356,712,2.2968
2.2400,509,1.6419
2.2445,417,1.3452
2.2489,417,1.3452
2.2532,412,1.3290
2.2584,369,1.1903
2.2627,368,1.1871
2.2670,413,1.3323
2.2713,441,1.4226
2.2756,420,1.3548
2.2799,384,1.2387
2.2842,396,1.2774
2.2885,436,1.4065
2.2928,448,1.4452
2.2971,418,1.3484
2.3014,396,1.2774
2.3057,426,1.3742
2.3100,460,1.4839
2.3144,449,1.4484
2.3186,410,1.3226
2.3229,407,1.3129
2.3272,450,1.4516
2.3314,477,1.5387
2.3357,456,1.4710
2.3403,425,1.3710
2.3446,442,1.4258
2.3488,485,1.5645
2.3530,499,1.6097
2.3573,465,1.5000
2.3615,444,1.4323
2.3658,474,1.5290
2.3700,510,1.6452
2.3743,503,1.6226
2.3786,463,1.4935
2.3828,459,1.4806
2.3871,504,1.6258
2.3913,536,1.7290
2.3955,515,1.6613
2.3997,480,1.5484
2.4040,489,1.5774
2.4082,534,1.7226
2.4125,549,1.7710
2.4167,520,1.6774
2.4209,496,1.6000
2.4251,518,1.6710
2.4294,554,1.7871
2.4336,554,1.7871
2.4378,519,1.6742
2.4425,499,1.6097
2.4468,532,1.7161
2.4511,562,1.8129
2.4555,535,1.7258
2.4599,497,1.6032
2.4642,507,1.6355
2.4686,543,1.7516
2.4729,547,1.7645
2.4773,501,1.6161
2.4816,471,1.5194
2.4859,493,1.5903
2.4902,524,1.6903
2.4946,510,1.6452
2.4990,460,1.4839
2.5033,454,1.4645
2.5082,495,1.5968
2.5125,512,1.6516
2.5168,473,1.5258
2.5211,444,1.4323
2.5254,475,1.5323
2.5298,516,1.6645
2.5340,513,1.6548
2.5383,474,1.5290
2.5427,465,1.5000
2.5470,506,1.6323
2.5514,537,1.7323
2.5556,508,1.6387
2.5599,473,1.5258
2.5641,487,1.5710
2.5683,536,1.7290
2.5728,552,1.7806
2.5771,512,1.6516
2.5813,484,1.5613
2.5856,513,1.6548
2.5899,545,1.7581
2.5941,537,1.7323
2.5983,497,1.6032
2.6025,483,1.5581
2.6067,514,1.6581
2.6110,536,1.7290
2.6152,517,1.6677
2.6194,479,1.5452
2.6236,484,1.5613
2.6279,522,1.6839
2.6322,539,1.7387
2.6364,503,1.6226
2.6406,468,1.5097
2.6448,483,1.5581
2.6490,522,1.6839
2.6533,527,1.7000
2.6575,488,1.5742
2.6617,466,1.5032
2.6659,496,1.6000
2.6702,536,1.7290
2.6745,521,1.6806
2.6788,480,1.5484
2.6832,469,1.5129
2.6879,507,1.6355
2.6923,522,1.6839
2.6966,491,1.5839
2.7010,461,1.4871
2.7052,479,1.5452
2.7095,508,1.6387
2.7138,505,1.6290
2.7181,467,1.5065
2.7224,457,1.4742
2.7267,503,1.6226
2.7310,542,1.7484
2.7353,525,1.6935
2.7395,487,1.5710
2.7437,490,1.5806
2.7480,529,1.7065
2.7522,552,1.7806
2.7565,531,1.7129
2.7608,508,1.6387
2.7650,524,1.6903
2.7697,559,1.8032
2.7739,553,1.7839
2.7786,499,1.6097
2.7829,474,1.5290
2.7874,511,1.6484
2.7918,530,1.7097
2.7962,493,1.5903
2.8005,455,1.4677
2.8049,471,1.5194
2.8092,513,1.6548
2.8135,516,1.6645
2.8178,471,1.5194
2.8222,452,1.4581
2.8265,481,1.5516
2.8314,506,1.6323
2.8357,471,1.5194
2.8401,429,1.3839
2.8444,429,1.3839
2.8487,469,1.5129
2.8530,512,1.6516
2.8573,539,1.7387
2.8617,598,1.9290
2.8660,741,2.3903
2.8704,929,2.9968
2.8756,1000,3.2258
2.8801,1001,3.2290
2.8845,1002,3.2323
2.8890,999,3.2226
2.8934,900,2.9032
2.8978,668,2.1548
2.9023,491,1.5839
2.9069,429,1.3839
2.9114,419,1.3516
2.9158,395,1.2742
2.9203,373,1.2032
2.9247,393,1.2677
2.9291,436,1.4065
2.9343,437,1.4097
2.9387,393,1.2677
2.9431,386,1.2452
2.9475,431,1.3903
2.9519,454,1.4645
2.9566,415,1.3387
2.9610,386,1.2452
2.9654,417,1.3452
2.9698,455,1.4677
2.9742,453,1.4613
2.9786,416,1.3419
2.9830,409,1.3194
2.9874,452,1.4581
2.9918,475,1.5323
2.9961,447,1.4419
3.0005,418,1.3484
3.0049,439,1.4161
3.0093,487,1.5710
3.0137,496,1.6000
3.0180,459,1.4806
3.0224,438,1.4129
3.0268,475,1.5323
3.0312,505,1.6290
3.0356,486,1.5677
3.0400,455,1.4677
3.0444,470,1.5161
3.0488,514,1.6581
3.0532,527,1.7000
3.0576,494,1.5935
3.0619,476,1.5355
3.0663,514,1.6581
3.0707,552,1.7806
3.0751,539,1.7387
3.0795,504,1.6258
3.0840,510,1.6452
3.0884,553,1.7839
3.0928,569,1.8355
3.0972,531,1.7129
3.1016,506,1.6323
3.1060,540,1.7419
3.1104,577,1.8613
3.1148,557,1.7968
3.1193,508,1.6387
3.1236,499,1.6097
3.1280,533,1.7194
3.1323,549,1.7710
3.1367,510,1.6452
3.1411,481,1.5516
3.1456,502,1.6194
3.1500,530,1.7097
3.1544,515,1.6613
3.1588,469,1.5129
3.1632,458,1.4774
3.1677,497,1.6032
3.1720,520,1.6774
3.1764,492,1.5871
3.1810,459,1.4806
3.1854,480,1.5484
3.1898,520,1.6774
3.1942,516,1.6645
3.1986,475,1.5323
3.2030,460,1.4839
3.2074,499,1.6097
3.2117,529,1.7065
3.2161,505,1.6290
3.2205,474,1.5290
3.2249,492,1.5871
3.2293,534,1.7226
3.2337,536,1.7290
3.2381,496,1.6000
3.2427,477,1.5387
3.2472,512,1.6516
3.2516,539,1.7387
3.2560,515,1.6613
3.2604,481,1.5516
3.2648,494,1.5935
3.2692,532,1.7161
3.2736,533,1.7194
3.2781,493,1.5903
3.2825,474,1.5290
3.2870,511,1.6484
3.2914,543,1.7516
3.2958,515,1.6613
3.3002,467,1.5065
3.3046,470,1.5161
3.3090,512,1.6516
3.3134,524,1.6903
3.3178,483,1.5581
3.3222,462,1.4903
3.3265,502,1.6194
3.3309,533,1.7194
3.3353,508,1.6387
3.3396,469,1.5129
3.3440,471,1.5194
3.3484,513,1.6548
3.3527,532,1.7161
3.3571,493,1.5903
3.3615,457,1.4742
3.3660,480,1.5484
3.3703,510,1.6452
3.3747,504,1.6258
3.3790,468,1.5097
3.3834,471,1.5194
3.3878,514,1.6581
3.3921,529,1.7065
3.3965,494,1.5935
3.4008,457,1.4742
3.4052,476,1.5355
3.4096,522,1.6839
3.4139,526,1.6968
3.4183,487,1.5710
3.4227,475,1.5323
3.4275,518,1.6710
3.4318,536,1.7290
3.4362,507,1.6355
3.4406,487,1.5710
3.4449,517,1.6677
3.4493,567,1.8290
3.4536,564,1.8194
3.4580,512,1.6516
3.4624,487,1.5710
3.4667,520,1.6774
3.4711,540,1.7419
3.4756,513,1.6548
3.4799,470,1.5161
3.4843,471,1.5194
3.4891,509,1.6419
3.4934,509,1.6419
3.4978,477,1.5387
3.5021,454,1.4645
3.5065,486,1.5677
3.5108,524,1.6903
3.5152,510,1.6452
3.5194,464,1.4968
3.5237,456,1.4710
3.5280,484,1.5613
3.5323,490,1.5806
3.5366,466,1.5032
3.5409,473,1.5258
3.5452,563,1.8161
3.5495,686,2.2129
3.5538,809,2.6097
3.5581,899,2.9000
3.5624,991,3.1968
3.5667,1001,3.2290
3.5710,1001,3.2290
3.5754,989,3.1903
3.5798,820,2.6452
3.5841,658,2.1226
3.5884,573,1.8484
3.5927,493,1.5903
3.5971,399,1.2871
3.6014,352,1.1355
3.6056,382,1.2323
3.6099,428,1.3806
3.6142,437,1.4097
3.6185,405,1.3065
3.6228,395,1.2742
3.6270,434,1.4000
3.6313,458,1.4774
3.6356,428,1.3806
3.6399,390,1.2581
3.6442,402,1.2968
3.6486,452,1.4581
3.6530,466,1.5032
3.6573,422,1.3613
3.6616,400,1.2903
3.6659,432,1.3935
3.6702,476,1.5355
3.6745,473,1.5258
3.6788,438,1.4129
3.6832,428,1.3806
3.6876,461,1.4871
3.6919,489,1.5774
3.6962,465,1.5000
3.7005,438,1.4129
3.7048,452,1.4581
3.7091,495,1.5968
3.7133,504,1.6258
3.7176,467,1.5065
3.7219,449,1.4484
3.7261,482,1.5548
3.7303,525,1.6935
3.7346,519,1.6742
3.7389,476,1.5355
3.7431,462,1.4903
3.7475,509,1.6419
3.7518,543,1.7516
3.7560,525,1.6935
3.7603,492,1.5871
3.7646,506,1.6323
3.7688,552,1.7806
3.7731,566,1.8258
3.7774,535,1.7258
3.7817,512,1.6516
3.7861,535,1.7258
3.7904,568,1.8323
3.7947,558,1.8000
3.7990,514,1.6581
3.8034,504,1.6258
3.8077,541,1.7452
3.8120,562,1.8129
3.8165,531,1.7129
3.8209,497,1.6032
3.8252,507,1.6355
3.8295,540,1.7419
3.8338,536,1.7290
3.8381,486,1.5677
3.8424,460,1.4839
3.8466,485,1.5645
3.8508,514,1.6581
3.8551,499,1.6097
3.8594,458,1.4774
3.8638,455,1.4677
3.8681,499,1.6097
3.8725,516,1.6645
3.8768,480,1.5484
3.8813,455,1.4677
3.8857,484,1.5613
3.8900,526,1.6968
3.8942,526,1.6968
3.8986,496,1.6000
3.9029,492,1.5871
3.9072,524,1.6903
3.9116,540,1.7419
3.9159,516,1.6645
3.9202,478,1.5419
3.9245,488,1.5742
3.9290,533,1.7194
3.9337,540,1.7419
3.9383,499,1.6097
3.9428,489,1.5774
3.9472,527,1.7000
3.9516,551,1.7774
3.9560,522,1.6839
3.9604,480,1.5484
3.9647,487,1.5710
3.9690,529,1.7065
3.9733,538,1.7355
3.9776,500,1.6129
3.9820,472,1.5226
3.9863,501,1.6161
3.9906,538,1.7355
3.9950,526,1.6968
3.9993,483,1.5581
4.0036,471,1.5194
4.0079,505,1.6290
4.0123,524,1.6903
4.0166,494,1.5935
4.0209,468,1.5097
4.0252,478,1.5419
4.0295,513,1.6548
4.0338,513,1.6548
4.0381,484,1.5613
4.0424,473,1.5258
4.0468,503,1.6226
4.0511,534,1.7226
4.0555,518,1.6710
4.0598,486,1.5677
4.0642,496,1.6000
4.0686,542,1.7484
4.0729,564,1.8194
4.0773,536,1.7290
4.0837,525,1.6935
4.0884,556,1.7935
4.0928,560,1.8065
4.0972,515,1.6613
4.1018,478,1.5419
4.1063,499,1.6097
4.1108,520,1.6774
4.1154,497,1.6032
4.1199,459,1.4806
4.1243,467,1.5065
4.1287,511,1.6484
4.1333,521,1.6806
4.1403,453,1.4613
4.1447,467,1.5065
4.1492,507,1.6355
4.1537,507,1.6355
4.1582,452,1.4581
4.1626,430,1.3871
4.1670,466,1.5032
4.1715,510,1.6452
4.1760,536,1.7290
4.1805,579,1.8677
4.1850,701,2.2613
4.1893,878,2.8323
4.1936,997,3.2161
4.1979,1000,3.2258
4.2022,1000,3.2258
4.2064,1002,3.2323
4.2107,983,3.1710
4.2150,809,2.6097
4.2193,605,1.9516
4.2235,476,1.5355
4.2278,426,1.3742
4.2320,411,1.3258
4.2363,383,1.2355
4.2405,364,1.1742
4.2448,389,1.2548
4.2491,438,1.4129
4.2533,449,1.4484
4.2576,414,1.3355
4.2619,392,1.2645
4.2661,423,1.3645
4.2704,463,1.4935
4.2746,460,1.4839
4.2790,422,1.3613
4.2833,408,1.3161
4.2876,440,1.4194
4.2918,467,1.5065
4.2961,447,1.4419
4.3026,421,1.3581
4.3069,460,1.4839
4.3113,490,1.5806
4.3156,467,1.5065
4.3200,431,1.3903
4.3243,438,1.4129
4.3286,489,1.5774
4.3330,516,1.6645
4.3373,490,1.5806
4.3416,465,1.5000
4.3460,488,1.5742
4.3502,519,1.6742
4.3545,512,1.6516
4.3588,475,1.5323
4.3631,469,1.5129
4.3674,512,1.6516
4.3717,547,1.7645
4.3760,525,1.6935
4.3803,489,1.5774
4.3845,504,1.6258
4.3888,550,1.7742
4.3931,557,1.7968
4.3974,522,1.6839
4.4019,494,1.5935
4.4068,536,1.7290
4.4111,571,1.8419
4.4155,549,1.7710
4.4197,508,1.6387
4.4240,511,1.6484
4.4283,555,1.7903
4.4326,575,1.8548
4.4368,535,1.7258
4.4411,494,1.5935
4.4455,512,1.6516
4.4498,543,1.7516
4.4541,533,1.7194
4.4584,494,1.5935
4.4627,476,1.5355
4.4670,505,1.6290
4.4714,523,1.6871
4.4757,498,1.6065
4.4799,457,1.4742
4.4846,460,1.4839
4.4889,506,1.6323
4.4931,519,1.6742
4.4974,479,1.5452
4.5017,451,1.4548
4.5061,481,1.5516
4.5104,522,1.6839
4.5147,520,1.6774
4.5190,488,1.5742
4.5233,478,1.5419
4.5278,514,1.6581
4.5321,539,1.7387
4.5364,516,1.6645
4.5407,482,1.5548
4.5449,496,1.6000
4.5498,540,1.7419
4.5541,547,1.7645
4.5585,507,1.6355
4.5628,488,1.5742
4.5670,519,1.6742
4.5714,552,1.7806
4.5758,525,1.6935
4.5802,485,1.5645
4.5845,494,1.5935
4.5889,535,1.7258
4.5932,547,1.7645
4.5975,508,1.6387
4.6022,475,1.5323
4.6070,505,1.6290
4.6113,531,1.7129
4.6156,510,1.6452
4.6199,471,1.5194
4.6242,475,1.5323
4.6285,516,1.6645
4.6328,528,1.7032
4.6371,487,1.5710
4.6414,447,1.4419
4.6457,472,1.5226
4.6499,516,1.6645
4.6543,520,1.6774
4.6586,477,1.5387
4.6628,452,1.4581
4.6671,488,1.5742
4.6714,523,1.6871
4.6758,503,1.6226
4.6801,469,1.5129
4.6847,478,1.5419
4.6891,518,1.6710
4.6934,532,1.7161
4.6977,500,1.6129
4.7019,475,1.5323
4.7068,508,1.6387
4.7111,547,1.7645
4.7155,540,1.7419
4.7198,509,1.6419
4.7240,509,1.6419
4.7284,550,1.7742
4.7327,563,1.8161
4.7370,527,1.7000
4.7414,488,1.5742
4.7470,511,1.6484
4.7513,535,1.7258
4.7556,509,1.6419
4.7599,465,1.5000
4.7642,460,1.4839
4.7687,500,1.6129
4.7733,513,1.6548
4.7778,478,1.5419
4.7822,451,1.4548
4.7867,482,1.5548
4.7917,518,1.6710
4.7960,492,1.5871
4.8003,449,1.4484
4.8047,436,1.4065
4.8090,461,1.4871
4.8133,472,1.5226
4.8177,456,1.4710
4.8220,493,1.5903
4.8263,600,1.9355
4.8307,733,2.3645
4.8349,856,2.7613
4.8392,963,3.1065
4.8435,1000,3.2258
4.8478,1002,3.2323
4.8521,1002,3.2323
4.8564,996,3.2129
4.8607,841,2.7129
4.8651,651,2.1000
4.8694,533,1.7194
4.8737,450,1.4516
4.8781,376,1.2129
4.8825,351,1.1323
4.8868,388,1.2516
4.8913,431,1.3903
4.8957,414,1.3355
4.9001,379,1.2226
4.9045,384,1.2387
4.9089,428,1.3806
4.9133,445,1.4355
4.9177,410,1.3226
4.9222,389,1.2548
4.9265,419,1.3516
4.9309,455,1.4677
4.9355,442,1.4258
4.9398,407,1.3129
4.9442,410,1.3226
4.9485,452,1.4581
4.9528,474,1.5290
4.9571,441,1.4226
4.9614,411,1.3258
4.9656,437,1.4097
4.9699,482,1.5548
4.9742,487,1.5710
4.9785,452,1.4581
4.9829,437,1.4097
4.9872,469,1.5129
4.9915,498,1.6065
4.9957,485,1.5645
4.9999,458,1.4774
5.0042,460,1.4839
5.0086,500,1.6129
5.0130,526,1.6968
5.0181,489,1.5774
5.0225,470,1.5161
5.0269,502,1.6194
5.0312,541,1.7452
5.0355,532,1.7161
5.0397,499,1.6097
5.0440,501,1.6161
5.0482,544,1.7548
5.0524,568,1.8323
5.0566,539,1.7387
5.0609,505,1.6290
5.0652,520,1.6774
5.0694,559,1.8032
5.0737,561,1.8097
5.0779,525,1.6935
5.0821,497,1.6032
5.0864,522,1.6839
5.0906,551,1.7774
5.0948,535,1.7258
5.0996,485,1.5645
5.1043,480,1.5484
5.1086,515,1.6613
5.1128,525,1.6935
5.1170,491,1.5839
5.1212,456,1.4710
5.1255,471,1.5194
5.1297,506,1.6323
5.1339,504,1.6258
5.1382,453,1.4613
5.1425,432,1.3935
5.1468,475,1.5323
5.1511,516,1.6645
5.1555,501,1.6161
5.1598,462,1.4903
5.1641,464,1.4968
5.1685,503,1.6226
5.1728,524,1.6903
5.1772,494,1.5935
5.1818,463,1.4935
5.1861,491,1.5839
5.1904,527,1.7000
5.1947,522,1.6839
5.1990,485,1.5645
5.2033,475,1.5323
5.2076,518,1.6710
5.2120,553,1.7839
5.2163,522,1.6839
5.2206,476,1.5355
5.2249,482,1.5548
5.2293,516,1.6645
5.2336,528,1.7032
5.2379,496,1.6000
5.2422,475,1.5323
5.2465,508,1.6387
5.2508,538,1.7355
5.2550,528,1.7032
5.2593,488,1.5742
5.2641,480,1.5484
5.2685,512,1.6516
5.2728,531,1.7129
5.2770,502,1.6194
5.2812,473,1.5258
5.2855,489,1.5774
5.2897,520,1.6774
5.2940,525,1.6935
5.2982,486,1.5677
5.3024,460,1.4839
5.3066,491,1.5839
5.3109,524,1.6903
5.3152,504,1.6258
5.3194,466,1.5032
5.3237,463,1.4935
5.3280,505,1.6290
5.3323,527,1.7000
5.3365,498,1.6065
5.3407,466,1.5032
5.3450,482,1.5548
5.3492,520,1.6774
5.3535,526,1.6968
5.3577,492,1.5871
5.3619,465,1.5000
5.3668,504,1.6258
5.3711,537,1.7323
5.3755,523,1.6871
5.3798,484,1.5613
5.3841,485,1.5645
5.3884,529,1.7065
5.3927,555,1.7903
5.3971,529,1.7065
5.4013,506,1.6323
5.4059,529,1.7065
5.4101,567,1.8290
5.4144,566,1.8258
5.4186,518,1.6710
5.4228,483,1.5581
5.4272,507,1.6355
5.4314,529,1.7065
5.4357,505,1.6290
5.4399,462,1.4903
5.4441,460,1.4839
5.4488,511,1.6484
5.4530,529,1.7065
5.4572,492,1.5871
5.4615,456,1.4710
5.4657,473,1.5258
5.4700,509,1.6419
5.4742,501,1.6161
5.4785,456,1.4710
5.4827,430,1.3871
5.4869,456,1.4710
5.4911,497,1.6032
5.4954,520,1.6774
5.4996,547,1.7645
5.5039,632,2.0387
5.5081,798,2.5742
5.5126,965,3.1129
5.5169,1000,3.2258
5.5211,1003,3.2355
5.5253,1000,3.2258
5.5295,1002,3.2323
5.5338,965,3.1129
5.5380,753,2.4290
5.5423,558,1.8000
5.5465,461,1.4871
5.5513,433,1.3968
5.5556,408,1.3161
5.5603,373,1.2032
5.5646,385,1.2419
5.5688,431,1.3903
5.5730,457,1.4742
5.5773,421,1.3581
5.5815,386,1.2452
5.5858,411,1.3258
5.5901,453,1.4613
5.5944,452,1.4581
5.5987,417,1.3452
5.6029,403,1.3000
5.6071,437,1.4097
5.6114,469,1.5129
5.6157,451,1.4548
5.6200,410,1.3226
5.6245,414,1.3355
5.6288,459,1.4806
5.6332,477,1.5387
5.6375,443,1.4290
5.6418,425,1.3710
5.6460,455,1.4677
5.6503,498,1.6065
5.6547,493,1.5903
5.6590,449,1.4484
5.6634,440,1.4194
5.6677,481,1.5516
5.6721,514,1.6581
5.6764,499,1.6097
5.6807,465,1.5000
5.6850,475,1.5323
5.6893,517,1.6677
5.6936,529,1.7065
5.6979,494,1.5935
5.7022,468,1.5097
5.7064,501,1.6161
5.7107,540,1.7419
5.7152,532,1.7161
5.7195,499,1.6097
5.7237,502,1.6194
5.7280,540,1.7419
5.7322,563,1.8161
5.7364,536,1.7290
5.7407,497,1.6032
5.7449,507,1.6355
5.7491,549,1.7710
5.7533,568,1.8323
5.7576,531,1.7129
5.7621,493,1.5903
5.7664,512,1.6516
5.7708,548,1.7677
5.7752,536,1.7290
5.7796,486,1.5677
5.7841,475,1.5323
5.7886,514,1.6581
5.7930,528,1.7032
5.7976,487,1.5710
5.8020,454,1.4645
5.8064,475,1.5323
5.8109,514,1.6581
5.8155,503,1.6226
5.8201,460,1.4839
5.8246,459,1.4806
5.8291,500,1.6129
5.8335,515,1.6613
5.8380,477,1.5387
5.8431,458,1.4774
5.8475,494,1.5935
5.8519,529,1.7065
5.8569,507,1.6355
5.8613,473,1.5258
5.8657,490,1.5806
5.8702,535,1.7258
5.8748,536,1.7290
5.8807,483,1.5581
5.8852,494,1.5935
5.8896,532,1.7161
5.8940,546,1.7613
5.8984,508,1.6387
5.9029,491,1.5839
5.9073,522,1.6839
5.9117,551,1.7774
5.9161,530,1.7097
5.9206,485,1.5645
5.9259,497,1.6032
5.9303,535,1.7258
5.9347,526,1.6968
5.9391,481,1.5516
5.9435,468,1.5097
5.9479,509,1.6419
5.9524,540,1.7419
5.9568,515,1.6613
5.9613,476,1.5355
5.9657,494,1.5935
5.9701,533,1.7194
5.9745,525,1.6935
5.9789,482,1.5548
5.9833,465,1.5000
5.9877,501,1.6161
5.9921,531,1.7129
5.9964,505,1.6290
6.0008,465,1.5000
6.0053,477,1.5387
6.0097,522,1.6839
6.0144,520,1.6774
6.0188,485,1.5645
6.0232,467,1.5065
6.0276,500,1.6129
6.0333,524,1.6903
6.0378,483,1.5581
6.0425,450,1.4516
6.0470,485,1.5645
6.0515,523,1.6871
6.0560,506,1.6323
6.0604,471,1.5194
6.0650,477,1.5387
6.0699,523,1.6871
6.0743,534,1.7226
6.0787,500,1.6129
6.0831,484,1.5613
6.0875,519,1.6742
6.0919,551,1.7774
6.0963,537,1.7323
6.1007,506,1.6323
6.1052,515,1.6613
6.1096,546,1.7613
6.1141,545,1.7581
6.1185,503,1.6226
6.1230,476,1.5355
6.1277,502,1.6194
6.1321,524,1.6903
6.1365,498,1.6065
6.1409,459,1.4806
6.1454,478,1.5419
6.1498,521,1.6806
6.1543,524,1.6903
6.1587,484,1.5613
6.1632,467,1.5065
6.1676,494,1.5935
6.1720,518,1.6710
6.1765,485,1.5645
6.1809,437,1.4097
6.1853,443,1.4290
6.1897,495,1.5968
6.1941,548,1.7677
6.1986,582,1.8774
6.2031,656,2.1161
6.2075,817,2.6355
6.2119,983,3.1710
6.2166,1001,3.2290
6.2210,1003,3.2355
6.2255,1000,3.2258
6.2299,963,3.1065
6.2355,745,2.4032
6.2399,562,1.8129
6.2444,445,1.4355
6.2488,412,1.3290
6.2532,412,1.3290
6.2577,391,1.2613
6.2621,380,1.2258
6.2671,417,1.3452
6.2715,449,1.4484
6.2766,430,1.3871
6.2810,401,1.2935
6.2856,413,1.3323
6.2900,457,1.4742
6.2944,463,1.4935
6.2989,424,1.3677
6.3033,410,1.3226
6.3077,441,1.4226
6.3121,467,1.5065
6.3166,446,1.4387
6.3210,419,1.3516
6.3255,442,1.4258
6.3299,496,1.6000
6.3343,502,1.6194
6.3386,457,1.4742
6.3430,432,1.3935
6.3473,467,1.5065
6.3517,503,1.6226
6.3560,483,1.5581
6.3604,446,1.4387
6.3648,458,1.4774
6.3691,505,1.6290
6.3735,526,1.6968
6.3779,495,1.5968
6.3822,463,1.4935
6.3866,488,1.5742
6.3910,524,1.6903
6.3955,519,1.6742
6.3999,487,1.5710
6.4042,494,1.5935
6.4086,539,1.7387
6.4130,562,1.8129
6.4173,535,1.7258
6.4217,505,1.6290
6.4261,522,1.6839
6.4304,560,1.8065
6.4348,558,1.8000
6.4392,522,1.6839
6.4436,513,1.6548
6.4479,545,1.7581
6.4523,571,1.8419
6.4571,540,1.7419
6.4615,504,1.6258
6.4658,519,1.6742
6.4702,557,1.7968
6.4746,543,1.7516
6.4789,490,1.5806
6.4833,464,1.4968
6.4876,494,1.5935
6.4920,526,1.6968
6.4964,505,1.6290
6.5008,463,1.4935
6.5051,465,1.5000
6.5095,501,1.6161
6.5139,512,1.6516
6.5189,467,1.5065
6.5233,455,1.4677
6.5276,495,1.5968
6.5320,527,1.7000
6.5365,505,1.6290
6.5409,470,1.5161
6.5453,480,1.5484
6.5496,517,1.6677
6.5540,527,1.7000
6.5583,493,1.5903
6.5626,469,1.5129
6.5669,501,1.6161
6.5713,541,1.7452
6.5756,533,1.7194
6.5802,491,1.5839
6.5845,489,1.5774
6.5888,530,1.7097
6.5931,551,1.7774
6.5973,520,1.6774
6.6016,492,1.5871
6.6059,507,1.6355
6.6101,538,1.7355
6.6143,539,1.7387
6.6186,498,1.6065
6.6228,478,1.5419
6.6271,511,1.6484
6.6313,542,1.7484
6.6355,526,1.6968
6.6397,487,1.5710
6.6440,477,1.5387
6.6483,512,1.6516
6.6525,536,1.7290
6.6567,516,1.6645
6.6609,485,1.5645
6.6651,485,1.5645
6.6694,517,1.6677
6.6737,525,1.6935
6.6781,493,1.5903
6.6824,469,1.5129
6.6868,498,1.6065
6.6911,534,1.7226
6.6955,523,1.6871
6.6998,482,1.5548
6.7041,471,1.5194
6.7084,507,1.6355
6.7126,537,1.7323
6.7168,516,1.6645
6.7211,482,1.5548
6.7254,496,1.6000
6.7298,544,1.7548
6.7341,557,1.7968
6.7384,523,1.6871
6.7428,507,1.6355
6.7477,545,1.7581
6.7521,571,1.8419
6.7563,541,1.7452
6.7606,503,1.6226
6.7649,499,1.6097
6.7692,534,1.7226
6.7735,537,1.7323
6.7779,484,1.5613
6.7822,448,1.4452
6.7865,475,1.5323
6.7909,517,1.6677
6.7952,512,1.6516
6.7994,472,1.5226
6.8036,457,1.4742
6.8079,489,1.5774
6.8124,517,1.6677
6.8167,492,1.5871
6.8212,447,1.4419
6.8256,446,1.4387
6.8298,478,1.5419
6.8341,493,1.5903
6.8383,486,1.5677
6.8425,524,1.6903
6.8467,630,2.0323
6.8510,772,2.4903
6.8552,910,2.9355
6.8595,994,3.2065
6.8637,1001,3.2290
6.8679,1000,3.2258
6.8722,1001,3.2290
6.8765,956,3.0839
6.8807,749,2.4161
6.8850,588,1.8968
6.8894,509,1.6419
6.8938,441,1.4226
6.8982,372,1.2000
6.9025,346,1.1161
6.9068,394,1.2710
6.9118,440,1.4194
6.9161,429,1.3839
6.9204,392,1.2645
6.9247,393,1.2677
6.9290,434,1.4000
6.9333,456,1.4710
6.9375,431,1.3903
6.9417,404,1.3032
6.9459,420,1.3548
6.9501,460,1.4839
6.9544,469,1.5129
6.9586,427,1.3774
6.9628,401,1.2935
6.9670,436,1.4065
6.9713,472,1.5226
6.9757,465,1.5000
6.9800,430,1.3871
6.9844,428,1.3806
6.9894,478,1.5419
6.9937,499,1.6097
6.9980,467,1.5065
7.0024,442,1.4258
7.0067,468,1.5097
7.0110,511,1.6484
7.0153,516,1.6645
7.0196,481,1.5516
7.0239,467,1.5065
7.0283,502,1.6194
7.0326,533,1.7194
7.0368,519,1.6742
7.0411,484,1.5613
7.0453,499,1.6097
7.0495,543,1.7516
7.0537,556,1.7935
7.0580,524,1.6903
7.0622,498,1.6065
7.0664,521,1.6806
7.0706,560,1.8065
7.0754,555,1.7903
7.0797,521,1.6806
7.0839,515,1.6613
7.0881,551,1.7774
7.0923,575,1.8548
7.0966,545,1.7581
7.1008,502,1.6194
7.1050,502,1.6194
7.1093,543,1.7516
7.1137,558,1.8000
7.1180,523,1.6871
7.1223,483,1.5581
7.1267,490,1.5806
7.1310,518,1.6710
7.1355,508,1.6387
7.1399,461,1.4871
7.1442,451,1.4548
7.1486,490,1.5806
7.1535,513,1.6548
7.1578,479,1.5452
7.1622,444,1.4323
7.1666,468,1.5097
7.1709,509,1.6419
7.1754,510,1.6452
7.1798,473,1.5258
7.1841,467,1.5065
7.1884,506,1.6323
7.1927,528,1.7032
7.1971,507,1.6355
7.2014,473,1.5258
7.2057,488,1.5742
7.2101,534,1.7226
7.2144,542,1.7484
7.2192,496,1.6000
7.2235,483,1.5581
7.2278,515,1.6613
7.2321,546,1.7613
7.2364,527,1.7000
7.2407,485,1.5645
7.2450,488,1.5742
7.2493,527,1.7000
7.2535,542,1.7484
7.2578,512,1.6516
7.2621,484,1.5613
7.2665,505,1.6290
7.2708,536,1.7290
7.2751,532,1.7161
7.2795,492,1.5871
7.2838,474,1.5290
7.2881,504,1.6258
7.2923,536,1.7290
7.2968,516,1.6645
7.3011,479,1.5452
7.3055,483,1.5581
7.3097,520,1.6774
7.3145,523,1.6871
7.3188,486,1.5677
7.3231,467,1.5065
7.3274,498,1.6065
7.3317,531,1.7129
7.3360,519,1.6742
7.3404,485,1.5645
7.3447,477,1.5387
7.3490,508,1.6387
7.3533,524,1.6903
7.3575,491,1.5839
7.3624,456,1.4710
7.3667,484,1.5613
7.3710,527,1.7000
7.3754,522,1.6839
7.3798,481,1.5516
7.3842,468,1.5097
7.3886,504,1.6258
7.3929,531,1.7129
7.3972,507,1.6355
7.4015,477,1.5387
7.4059,498,1.6065
7.4103,541,1.7452
7.4150,544,1.7548
7.4196,503,1.6226
7.4239,494,1.5935
7.4282,538,1.7355
7.4324,572,1.8452
7.4367,555,1.7903
7.4410,517,1.6677
7.4452,513,1.6548
7.4494,545,1.7581
7.4537,551,1.7774
7.4579,509,1.6419
7.4621,474,1.5290
7.4664,485,1.5645
7.4706,520,1.6774
7.4748,521,1.6806
7.4790,481,1.5516
7.4833,463,1.4935
7.4876,496,1.6000
7.4918,527,1.7000
7.4960,508,1.6387
7.5002,469,1.5129
7.5044,462,1.4903
7.5087,490,1.5806
7.5132,499,1.6097
7.5175,461,1.4871
7.5218,432,1.3935
7.5264,493,1.5903
7.5307,599,1.9323
7.5349,679,2.1903
7.5392,745,2.4032
7.5434,866,2.7935
7.5477,1000,3.2258
7.5519,1001,3.2290
7.5561,1004,3.2387
7.5603,1002,3.2323
7.5645,984,3.1742
7.5688,847,2.7323
7.5730,678,2.1871
7.5773,504,1.6258
7.5815,381,1.2290
7.5858,365,1.1774
7.5900,414,1.3355
7.5943,436,1.4065
7.5985,411,1.3258
7.6027,388,1.2516
7.6069,412,1.3290
7.6112,444,1.4323
7.6158,438,1.4129
7.6200,398,1.2839
7.6243,389,1.2548
7.6286,435,1.4032
7.6329,462,1.4903
7.6371,435,1.4032
7.6413,401,1.2935
7.6455,412,1.3290
7.6497,452,1.4581
7.6539,470,1.5161
7.6581,442,1.4258
7.6623,417,1.3452
7.6665,441,1.4226
7.6708,480,1.5484
7.6750,483,1.5581
7.6792,440,1.4194
7.6835,424,1.3677
7.6878,460,1.4839
7.6921,499,1.6097
7.6964,492,1.5871
7.7006,455,1.4677
7.7048,448,1.4452
7.7090,493,1.5903
7.7133,525,1.6935
7.7175,500,1.6129
7.7218,471,1.5194
7.7261,490,1.5806
7.7304,533,1.7194
7.7347,542,1.7484
7.7389,510,1.6452
7.7431,484,1.5613
7.7474,515,1.6613
7.7516,561,1.8097
7.7559,557,1.7968
7.7601,518,1.6710
7.7643,509,1.6419
7.7685,548,1.7677
7.7728,569,1.8355
7.7770,542,1.7484
7.7812,505,1.6290
7.7855,514,1.6581
7.7898,552,1.7806
7.7941,562,1.8129
7.7983,523,1.6871
7.8025,489,1.5774
7.8067,504,1.6258
7.8109,539,1.7387
7.8152,532,1.7161
7.8194,486,1.5677
7.8237,468,1.5097
7.8285,497,1.6032
7.8328,518,1.6710
7.8371,493,1.5903
7.8413,459,1.4806
7.8455,467,1.5065
7.8497,506,1.6323
7.8540,518,1.6710
7.8582,481,1.5516
7.8624,452,1.4581
7.8666,473,1.5258
7.8708,515,1.6613
7.8751,519,1.6742
7.8794,484,1.5613
7.8837,471,1.5194
7.8880,508,1.6387
7.8924,538,1.7355
7.8968,522,1.6839
7.9011,490,1.5806
7.9055,493,1.5903
7.9102,535,1.7258
7.9146,540,1.7419
7.9189,504,1.6258
7.9232,478,1.5419
7.9275,512,1.6516
7.9319,548,1.7677
7.9363,534,1.7226
7.9407,492,1.5871
7.9450,490,1.5806
7.9492,529,1.7065
7.9536,545,1.7581
7.9579,512,1.6516
7.9622,478,1.5419
7.9666,495,1.5968
7.9709,536,1.7290
7.9759,524,1.6903
7.9802,480,1.5484
7.9845,472,1.5226
7.9887,506,1.6323
7.9930,528,1.7032
7.9974,503,1.6226
8.0017,468,1.5097
8.0059,476,1.5355
8.0102,508,1.6387
8.0145,513,1.6548
8.0188,473,1.5258
8.0231,456,1.4710
8.0274,489,1.5774
8.0317,526,1.6968
8.0360,515,1.6613
8.0403,475,1.5323
8.0445,464,1.4968
8.0487,499,1.6097
8.0534,524,1.6903
8.0577,498,1.6065
8.0619,465,1.5000
8.0661,478,1.5419
8.0703,517,1.6677
8.0745,527,1.7000
8.0788,484,1.5613
8.0830,455,1.4677
8.0873,482,1.5548
8.0916,524,1.6903
8.0959,520,1.6774
8.1003,485,1.5645
8.1046,482,1.5548
8.1089,522,1.6839
8.1132,548,1.7677
8.1176,527,1.7000
8.1219,501,1.6161
8.1262,526,1.6968
8.1311,569,1.8355
8.1354,562,1.8129
8.1397,514,1.6581
8.1440,492,1.5871
8.1483,519,1.6742
8.1525,538,1.7355
8.1568,508,1.6387
8.1611,465,1.5000
8.1654,465,1.5000
8.1697,501,1.6161
8.1739,520,1.6774
8.1781,486,1.5677
8.1824,459,1.4806
8.1867,480,1.5484
8.1909,522,1.6839
8.1951,522,1.6839
8.1993,478,1.5419
8.2036,447,1.4419
8.2078,469,1.5129
8.2121,492,1.5871
8.2163,485,1.5645
8.2211,481,1.5516
8.2255,555,1.7903
8.2298,687,2.2161
8.2341,828,2.6710
8.2384,945,3.0484
8.2426,1000,3.2258
8.2469,1002,3.2323
8.2511,1003,3.2355
8.2554,999,3.2226
8.2596,913,2.9452
8.2639,709,2.2871
8.2681,581,1.8742
8.2724,496,1.6000
8.2766,421,1.3581
8.2808,368,1.1871
8.2851,371,1.1968
8.2894,417,1.3452
8.2937,446,1.4387
8.2980,421,1.3581
8.3028,395,1.2742
8.3071,414,1.3355
8.3113,446,1.4387
8.3156,442,1.4258
8.3198,409,1.3194
8.3242,400,1.2903
8.3285,436,1.4065
8.3328,464,1.4968
8.3372,444,1.4323
8.3415,408,1.3161
8.3458,416,1.3419
8.3502,459,1.4806
8.3545,472,1.5226
8.3588,436,1.4065
8.3632,414,1.3355
8.3676,453,1.4613
8.3719,492,1.5871
8.3764,480,1.5484
8.3808,444,1.4323
8.3851,449,1.4484
8.3894,489,1.5774
8.3937,505,1.6290
8.3981,471,1.5194
8.4024,444,1.4323
8.4068,467,1.5065
8.4111,514,1.6581
8.4154,523,1.6871
8.4197,488,1.5742
8.4241,473,1.5258
8.4284,511,1.6484
8.4327,546,1.7613
8.4377,525,1.6935
8.4421,491,1.5839
8.4465,508,1.6387
8.4508,547,1.7645
8.4552,555,1.7903
8.4597,514,1.6581
8.4642,499,1.6097
8.4687,538,1.7355
8.4732,565,1.8226
8.4777,538,1.7355
8.4821,507,1.6355
8.4866,523,1.6871
8.4911,553,1.7839
8.4956,542,1.7484
8.5000,494,1.5935
8.5045,477,1.5387
8.5089,513,1.6548
8.5136,532,1.7161
8.5180,488,1.5742
8.5224,446,1.4387
8.5270,467,1.5065
8.5314,507,1.6355
8.5358,501,1.6161
8.5402,460,1.4839
8.5452,454,1.4645
8.5496,498,1.6065
8.5540,516,1.6645
8.5584,480,1.5484
8.5627,451,1.4548
8.5671,477,1.5387
8.5715,516,1.6645
8.5759,514,1.6581
8.5803,475,1.5323
8.5851,469,1.5129
8.5894,512,1.6516
8.5938,538,1.7355
8.5983,505,1.6290
8.6026,476,1.5355
8.6069,498,1.6065
8.6113,536,1.7290
8.6156,530,1.7097
8.6200,490,1.5806
8.6243,478,1.5419
8.6287,519,1.6742
8.6331,547,1.7645
8.6375,518,1.6710
8.6418,475,1.5323
8.6462,487,1.5710
8.6506,530,1.7097
8.6550,533,1.7194
8.6594,490,1.5806
8.6638,467,1.5065
8.6686,508,1.6387
8.6729,540,1.7419
8.6773,518,1.6710
8.6817,475,1.5323
8.6861,475,1.5323
8.6904,511,1.6484
8.6948,523,1.6871
8.6992,487,1.5710
8.7036,469,1.5129
8.7080,500,1.6129
8.7124,528,1.7032
8.7168,509,1.6419
8.7212,469,1.5129
8.7256,472,1.5226
8.7302,518,1.6710
8.7346,528,1.7032
8.7390,491,1.5839
8.7434,463,1.4935
8.7478,491,1.5839
8.7522,521,1.6806
8.7565,512,1.6516
8.7609,470,1.5161
8.7654,469,1.5129
8.7698,510,1.6452
8.7742,531,1.7129
8.7786,495,1.5968
8.7830,472,1.5226
8.7874,509,1.6419
8.7921,549,1.7710
8.7964,529,1.7065
8.8009,492,1.5871
8.8053,508,1.6387
8.8097,563,1.8161
8.8141,585,1.8871
8.8186,544,1.7548
8.8230,507,1.6355
8.8274,524,1.6903
8.8318,552,1.7806
8.8362,530,1.7097
8.8407,477,1.5387
8.8451,470,1.5161
8.8495,512,1.6516
8.8539,535,1.7258
8.8583,496,1.6000
8.8627,464,1.4968
8.8671,485,1.5645
8.8714,525,1.6935
8.8758,520,1.6774
8.8802,479,1.5452
8.8846,461,1.4871
8.8890,488,1.5742
8.8934,502,1.6194
8.8978,469,1.5129
8.9022,443,1.4290
8.9066,492,1.5871
8.9110,594,1.9161
8.9156,686,2.2129
8.9200,769,2.4806
8.9244,887,2.8613
8.9288,1000,3.2258
8.9332,1002,3.2323
8.9375,1000,3.2258
8.9424,961,3.1000
8.9468,818,2.6387
8.9512,700,2.2581
8.9556,574,1.8516
8.9601,431,1.3903
8.9644,363,1.1710
8.9689,386,1.2452
8.9733,418,1.3484
8.9777,400,1.2903
8.9820,374,1.2065
8.9864,399,1.2871
8.9908,447,1.4419
8.9952,455,1.4677
8.9996,412,1.3290
9.0040,394,1.2710
9.0084,437,1.4097
9.0128,471,1.5194
9.0173,452,1.4581
9.0219,415,1.3387
9.0263,428,1.3806
9.0307,471,1.5194
9.0351,474,1.5290
9.0396,431,1.3903
9.0439,405,1.3065
9.0484,443,1.4290
9.0528,481,1.5516
9.0572,469,1.5129
9.0615,438,1.4129
9.0660,451,1.4548
9.0703,496,1.6000
9.0747,511,1.6484
9.0790,468,1.5097
9.0834,442,1.4258
9.0878,475,1.5323
9.0921,517,1.6677
9.0965,514,1.6581
9.1008,478,1.5419
9.1052,474,1.5290
9.1095,516,1.6645
9.1139,540,1.7419
9.1183,515,1.6613
9.1226,479,1.5452
9.1269,501,1.6161
9.1313,543,1.7516
9.1356,552,1.7806
9.1402,515,1.6613
9.1446,501,1.6161
9.1489,544,1.7548
9.1533,570,1.8387
9.1576,541,1.7452
9.1621,503,1.6226
9.1664,514,1.6581
9.1708,556,1.7935
9.1751,561,1.8097
9.1795,515,1.6613
9.1838,486,1.5677
9.1882,511,1.6484
9.1926,541,1.7452
9.1969,524,1.6903
9.2013,480,1.5484
9.2056,472,1.5226
9.2100,509,1.6419
9.2144,519,1.6742
9.2187,480,1.5484
9.2235,448,1.4452
9.2278,476,1.5355
9.2322,514,1.6581
9.2366,499,1.6097
9.2411,464,1.4968
9.2455,470,1.5161
9.2499,508,1.6387
9.2543,524,1.6903
9.2586,496,1.6000
9.2630,468,1.5097
9.2673,493,1.5903
9.2717,528,1.7032
9.2761,523,1.6871
9.2804,485,1.5645
9.2851,481,1.5516
9.2894,524,1.6903
9.2938,553,1.7839
9.2982,518,1.6710
9.3025,489,1.5774
9.3069,505,1.6290
9.3112,536,1.7290
9.3156,531,1.7129
9.3199,490,1.5806
9.3242,476,1.5355
9.3286,510,1.6452
9.3329,540,1.7419
9.3372,522,1.6839
9.3420,481,1.5516
9.3465,489,1.5774
9.3508,529,1.7065
9.3551,536,1.7290
9.3594,497,1.6032
9.3636,470,1.5161
9.3679,493,1.5903
9.3722,526,1.6968
9.3765,517,1.6677
9.3807,480,1.5484
9.3850,475,1.5323
9.3896,513,1.6548
9.3940,535,1.7258
9.3983,503,1.6226
9.4026,467,1.5065
9.4069,484,1.5613
9.4112,525,1.6935
9.4156,528,1.7032
9.4199,486,1.5677
9.4243,461,1.4871
9.4286,496,1.6000
9.4329,526,1.6968
9.4373,509,1.6419
9.4416,476,1.5355
9.4459,485,1.5645
9.4502,535,1.7258
9.4546,555,1.7903
9.4589,517,1.6677
9.4632,485,1.5645
9.4675,510,1.6452
9.4717,555,1.7903
9.4761,565,1.8226
9.4804,538,1.7355
9.4847,526,1.6968
9.4898,556,1.7935
9.4941,570,1.8387
9.4984,529,1.7065
9.5027,481,1.5516
9.5069,484,1.5613
9.5111,516,1.6645
9.5154,517,1.6677
9.5197,478,1.5419
9.5239,455,1.4677
9.5282,492,1.5871
9.5324,528,1.7032
9.5369,509,1.6419
9.5412,463,1.4935
9.5455,454,1.4645
9.5497,492,1.5871
9.5540,510,1.6452
9.5583,468,1.5097
9.5625,427,1.3774
9.5668,441,1.4226
9.5715,497,1.6032
9.5758,545,1.7581
9.5801,582,1.8774
9.5844,658,2.1226
9.5886,818,2.6387
9.5928,992,3.2000
9.5971,1001,3.2290
9.6014,1004,3.2387
9.6056,1001,3.2290
9.6098,997,3.2161
9.6140,927,2.9903
9.6182,710,2.2903
9.6225,518,1.6710
9.6267,425,1.3710
9.6310,415,1.3387
9.6352,413,1.3323
9.6394,387,1.2484
9.6437,370,1.1935
9.6484,397,1.2806
9.6526,426,1.3742
9.6574,416,1.3419
9.6617,383,1.2355
9.6659,389,1.2548
9.6701,432,1.3935
9.6744,451,1.4548
9.6786,424,1.3677
9.6828,393,1.2677
9.6870,407,1.3129
9.6912,445,1.4355
9.6955,455,1.4677
9.6997,418,1.3484
9.7040,399,1.2871
9.7082,432,1.3935
9.7124,468,1.5097
9.7166,465,1.5000
9.7209,430,1.3871
9.7251,428,1.3806
9.7294,467,1.5065
9.7337,493,1.5903
9.7379,469,1.5129
9.7422,433,1.3968
9.7465,450,1.4516
9.7507,494,1.5935
9.7554,512,1.6516
9.7596,478,1.5419
9.7639,455,1.4677
9.7680,485,1.5645
9.7722,523,1.6871
9.7764,524,1.6903
9.7807,489,1.5774
9.7849,479,1.5452
9.7891,518,1.6710
9.7933,550,1.7742
9.7975,536,1.7290
9.8018,500,1.6129
9.8060,504,1.6258
9.8102,548,1.7677
9.8144,575,1.8548
9.8187,543,1.7516
9.8230,505,1.6290
9.8272,522,1.6839
9.8315,557,1.7968
9.8357,556,1.7935
9.8400,513,1.6548
9.8443,490,1.5806
9.8486,521,1.6806
9.8528,550,1.7742
9.8574,519,1.6742
9.8617,468,1.5097
9.8660,464,1.4968
9.8703,503,1.6226
9.8746,515,1.6613
9.8790,478,1.5419
9.8833,446,1.4387
9.8876,469,1.5129
9.8920,509,1.6419
9.8963,505,1.6290
9.9007,462,1.4903
9.9050,448,1.4452
9.9092,487,1.5710
9.9135,512,1.6516
9.9178,492,1.5871
9.9221,460,1.4839
9.9263,471,1.5194
9.9306,514,1.6581
9.9348,531,1.7129
9.9392,496,1.6000
9.9435,467,1.5065
9.9477,494,1.5935
9.9520,532,1.7161
9.9562,529,1.7065
9.9604,494,1.5935
9.9647,479,1.5452
9.9689,514,1.6581
9.9731,543,1.7516
9.9774,527,1.7000
9.9817,486,1.5677
9.9861,483,1.5581
9.9904,517,1.6677
9.9947,535,1.7258
9.9990,502,1.6194
10.0033,465,1.5000
10.0077,486,1.5677
10.0121,526,1.6968
10.0164,522,1.6839
10.0218,470,1.5161
10.0263,475,1.5323
10.0307,516,1.6645
10.0350,527,1.7000
10.0394,490,1.5806
10.0438,465,1.5000
10.0482,496,1.6000
10.0525,536,1.7290
10.0568,519,1.6742
10.0611,470,1.5161
10.0655,461,1.4871
10.0699,506,1.6323
10.0742,531,1.7129
10.0785,491,1.5839
10.0835,451,1.4548
10.0878,474,1.5290
10.0923,509,1.6419
10.0967,506,1.6323
10.1010,470,1.5161
10.1054,463,1.4935
10.1097,504,1.6258
10.1140,532,1.7161
10.1183,501,1.6161
10.1226,465,1.5000
10.1269,484,1.5613
10.1312,531,1.7129
10.1356,542,1.7484
10.1399,506,1.6323
10.1442,489,1.5774
10.1491,530,1.7097
10.1534,564,1.8194
10.1576,546,1.7613
10.1620,505,1.6290
10.1663,510,1.6452
10.1706,542,1.7484
10.1749,543,1.7516
10.1792,497,1.6032
10.1834,464,1.4968
10.1877,478,1.5419
10.1920,509,1.6419
10.1963,505,1.6290
10.2006,469,1.5129
10.2049,459,1.4806
10.2092,495,1.5968
10.2135,523,1.6871
10.2178,500,1.6129
10.2221,458,1.4774
10.2268,465,1.5000
10.2313,494,1.5935
10.2356,491,1.5839
10.2400,451,1.4548
10.2442,448,1.4452
10.2485,530,1.7097
10.2529,637,2.0548
10.2573,723,2.3323
10.2616,823,2.6548
10.2659,974,3.1419
10.2702,1003,3.2355
10.2745,1001,3.2290
10.2788,1003,3.2355
10.2831,995,3.2097
10.2874,860,2.7742
10.2918,696,2.2452
10.2961,543,1.7516
10.3004,412,1.3290
10.3047,368,1.1871
10.3091,406,1.3097
10.3134,442,1.4258
10.3178,427,1.3774
10.3222,393,1.2677
10.3270,401,1.2935
10.3313,439,1.4161
10.3356,449,1.4484
10.3400,417,1.3452
10.3443,399,1.2871
10.3485,428,1.3806
10.3528,462,1.4903
10.3571,455,1.4677
10.3614,418,1.3484
10.3657,415,1.3387
10.3701,455,1.4677
10.3744,472,1.5226
10.3787,449,1.4484
10.3831,425,1.3710
10.3875,451,1.4548
10.3918,490,1.5806
10.3961,488,1.5742
10.4003,449,1.4484
10.4045,434,1.4000
10.4088,468,1.5097
10.4130,503,1.6226
10.4173,494,1.5935
10.4215,464,1.4968
10.4257,464,1.4968
10.4299,505,1.6290
10.4342,531,1.7129
10.4385,512,1.6516
10.4428,484,1.5613
10.4470,498,1.6065
10.4517,542,1.7484
10.4560,550,1.7742
10.4602,513,1.6548
10.4644,492,1.5871
10.4687,527,1.7000
10.4729,568,1.8323
10.4771,558,1.8000
10.4813,516,1.6645
10.4856,507,1.6355
10.4898,546,1.7613
10.4940,575,1.8548
10.4982,551,1.7774
10.5025,513,1.6548
10.5067,520,1.6774
10.5109,559,1.8032
10.5151,569,1.8355
10.5194,526,1.6968
10.5236,486,1.5677
10.5279,500,1.6129
10.5321,531,1.7129
10.5364,525,1.6935
10.5407,477,1.5387
10.5449,453,1.4613
10.5491,482,1.5548
10.5537,512,1.6516
10.5580,489,1.5774
10.5622,448,1.4452
10.5664,451,1.4548
10.5707,495,1.5968
10.5749,514,1.6581
10.5791,484,1.5613
10.5833,450,1.4516
10.5875,467,1.5065
10.5917,505,1.6290
10.5960,511,1.6484
10.6003,482,1.5548
10.6045,466,1.5032
10.6088,500,1.6129
10.6130,534,1.7226
10.6172,527,1.7000
10.6215,488,1.5742
10.6258,477,1.5387
10.6300,516,1.6645
10.6343,540,1.7419
10.6385,516,1.6645
10.6428,483,1.5581
10.6472,495,1.5968
10.6515,529,1.7065
10.6559,536,1.7290
10.6602,499,1.6097
10.6644,474,1.5290
10.6686,502,1.6194
10.6728,539,1.7387
10.6770,530,1.7097
10.6813,486,1.5677
10.6855,474,1.5290
10.6897,513,1.6548
10.6939,535,1.7258
10.6982,510,1.6452
10.7025,476,1.5355
10.7067,481,1.5516
10.7109,516,1.6645
10.7151,527,1.7000
10.7194,492,1.5871
10.7236,460,1.4839
10.7278,478,1.5419
10.7321,510,1.6452
10.7363,509,1.6419
10.7406,474,1.5290
10.7449,455,1.4677
10.7491,491,1.5839
10.7534,524,1.6903
10.7580,499,1.6097
10.7623,457,1.4742
10.7665,458,1.4774
10.7707,499,1.6097
10.7749,516,1.6645
10.7791,484,1.5613
10.7834,458,1.4774
10.7876,480,1.5484
10.7918,524,1.6903
10.7961,536,1.7290
10.8003,502,1.6194
10.8046,480,1.5484
10.8089,510,1.6452
10.8131,544,1.7548
10.8173,537,1.7323
10.8215,508,1.6387
10.8258,507,1.6355
10.8302,542,1.7484
10.8345,558,1.8000
10.8387,526,1.6968
10.8429,481,1.5516
10.8472,480,1.5484
10.8514,506,1.6323
10.8556,506,1.6323
10.8601,465,1.5000
10.8644,446,1.4387
10.8687,476,1.5355
10.8731,509,1.6419
10.8774,497,1.6032
10.8817,463,1.4935
10.8861,451,1.4548
10.8904,484,1.5613
10.8948,501,1.6161
10.8992,462,1.4903
10.9036,419,1.3516
10.9079,434,1.4000
10.9122,477,1.5387
10.9165,514,1.6581
10.9208,544,1.7548
10.9251,617,1.9903
10.9294,778,2.5097
10.9337,949,3.0613
10.9381,999,3.2226
10.9424,1000,3.2258
10.9467,1001,3.2290
10.9509,998,3.2194
10.9552,887,2.8613
10.9596,671,2.1645
10.9639,503,1.6226
10.9682,428,1.3806
10.9725,412,1.3290
10.9767,400,1.2903
10.9809,370,1.1935
10.9851,365,1.1774
10.9894,410,1.3226
10.9938,443,1.4290
10.9980,423,1.3645
11.0022,382,1.2323
11.0064,383,1.2355
11.0107,432,1.3935
11.0149,456,1.4710
11.0191,427,1.3774
11.0233,395,1.2742
11.0276,408,1.3161
11.0319,444,1.4323
11.0361,455,1.4677
11.0404,424,1.3677
11.0448,410,1.3226
11.0491,442,1.4258
11.0533,482,1.5548
11.0576,462,1.4903
11.0619,425,1.3710
11.0661,427,1.3774
11.0704,474,1.5290
11.0747,503,1.6226
11.0789,478,1.5419
11.0831,442,1.4258
11.0873,450,1.4516
11.0916,488,1.5742
11.0959,506,1.6323
11.1002,477,1.5387
11.1049,456,1.4710
11.1093,492,1.5871
11.1136,527,1.7000
11.1179,511,1.6484
11.1222,478,1.5419
11.1266,484,1.5613
11.1309,529,1.7065
11.1352,555,1.7903
11.1395,529,1.7065
11.1438,505,1.6290
11.1480,533,1.7194
11.1523,571,1.8419
11.1565,563,1.8161
11.1608,521,1.6806
11.1650,504,1.6258
11.1693,541,1.7452
11.1735,569,1.8355
11.1778,545,1.7581
11.1825,495,1.5968
11.1868,496,1.6000
11.1910,536,1.7290
11.1954,546,1.7613
11.1998,505,1.6290
11.2041,471,1.5194
11.2085,494,1.5935
11.2128,528,1.7032
11.2172,512,1.6516
11.2215,465,1.5000
11.2258,450,1.4516
11.2304,492,1.5871
11.2347,508,1.6387
11.2390,469,1.5129
11.2433,435,1.4032
11.2476,457,1.4742
11.2520,499,1.6097
11.2563,509,1.6419
11.2605,477,1.5387
11.2648,462,1.4903
11.2690,493,1.5903
11.2738,529,1.7065
11.2781,510,1.6452
11.2826,470,1.5161
11.2869,482,1.5548
11.2912,535,1.7258
11.2955,547,1.7645
11.2997,501,1.6161
11.3040,471,1.5194
11.3082,490,1.5806
11.3125,528,1.7032
11.3167,527,1.7000
11.3210,488,1.5742
11.3253,475,1.5323
11.3295,511,1.6484
11.3338,540,1.7419
11.3381,518,1.6710
11.3424,483,1.5581
11.3467,490,1.5806
11.3509,530,1.7097
11.3558,536,1.7290
11.3601,498,1.6065
11.3644,474,1.5290
11.3687,500,1.6129
11.3730,536,1.7290
11.3773,520,1.6774
11.3816,471,1.5194
11.3859,463,1.4935
11.3902,503,1.6226
11.3945,528,1.7032
11.3988,498,1.6065
11.4032,460,1.4839
11.4075,479,1.5452
11.4118,522,1.6839
11.4161,534,1.7226
11.4204,489,1.5774
11.4248,456,1.4710
11.4292,492,1.5871
11.4335,533,1.7194
11.4378,518,1.6710
11.4421,478,1.5419
11.4464,479,1.5452
11.4506,526,1.6968
11.4549,550,1.7742
11.4592,519,1.6742
11.4635,490,1.5806
11.4678,512,1.6516
11.4720,556,1.7935
11.4763,568,1.8323
11.4807,528,1.7032
11.4850,507,1.6355
11.4893,543,1.7516
11.4936,575,1.8548
11.4979,537,1.7323
11.5022,472,1.5226
11.5064,455,1.4677
11.5107,489,1.5774
11.5153,515,1.6613
11.5196,489,1.5774
11.5239,454,1.4645
11.5282,472,1.5226
11.5325,515,1.6613
11.5368,514,1.6581
11.5411,472,1.5226
11.5455,458,1.4774
11.5497,488,1.5742
11.5539,508,1.6387
11.5581,479,1.5452
11.5624,434,1.4000
11.5667,443,1.4290
11.5709,514,1.6581
11.5752,597,1.9258
11.5794,655,2.1129
11.5837,738,2.3806
11.5879,881,2.8419
11.5921,1000,3.2258
11.5964,1003,3.2355
11.6006,1002,3.2323
11.6048,996,3.2129
11.6091,916,2.9548
11.6133,774,2.4968
11.6176,619,1.9968
11.6219,471,1.5194
11.6262,391,1.2613
11.6305,396,1.2774
11.6348,415,1.3387
11.6391,388,1.2516
11.6435,361,1.1645
11.6478,390,1.2581
11.6521,433,1.3968
11.6564,437,1.4097
11.6607,402,1.2968
11.6651,385,1.2419
11.6694,420,1.3548
11.6737,460,1.4839
11.6780,443,1.4290
11.6824,404,1.3032
11.6868,415,1.3387
11.6911,456,1.4710
11.6954,471,1.5194
11.6997,440,1.4194
11.7040,416,1.3419
11.7082,443,1.4290
11.7126,480,1.5484
11.7169,479,1.5452
11.7212,439,1.4161
11.7255,420,1.3548
11.7298,460,1.4839
11.7340,502,1.6194
11.7383,491,1.5839
11.7426,458,1.4774
11.7468,464,1.4968
11.7510,505,1.6290
11.7552,524,1.6903
11.7597,487,1.5710
11.7639,460,1.4839
11.7682,485,1.5645
11.7724,533,1.7194
11.7766,544,1.7548
11.7811,515,1.6613
11.7854,505,1.6290
11.7897,535,1.7258
11.7940,570,1.8387
11.7983,556,1.7935
11.8026,514,1.6581
11.8070,514,1.6581
11.8114,553,1.7839
11.8157,570,1.8387
11.8201,539,1.7387
11.8246,513,1.6548
11.8291,541,1.7452
11.8337,572,1.8452
11.8381,548,1.7677
11.8431,506,1.6323
11.8476,520,1.6774
11.8520,551,1.7774
11.8565,536,1.7290
11.8609,470,1.5161
11.8653,439,1.4161
11.8698,480,1.5484
11.8743,513,1.6548
11.8788,484,1.5613
11.8832,446,1.4387
11.8893,478,1.5419
11.8937,513,1.6548
11.8981,496,1.6000
11.9026,458,1.4774
11.9070,462,1.4903
11.9115,515,1.6613
11.9158,539,1.7387
11.9202,497,1.6032
11.9246,461,1.4871
11.9291,488,1.5742
11.9335,530,1.7097
11.9384,517,1.6677
11.9428,489,1.5774
11.9472,492,1.5871
11.9516,529,1.7065
11.9560,549,1.7710
11.9604,518,1.6710
11.9648,489,1.5774
11.9692,510,1.6452
11.9736,538,1.7355
11.9780,531,1.7129
11.9824,505,1.6290
11.9874,509,1.6419
11.9918,546,1.7613
11.9961,557,1.7968
12.0005,521,1.6806
12.0049,492,1.5871
12.0093,509,1.6419
12.0137,536,1.7290
12.0181,527,1.7000
12.0225,483,1.5581
12.0269,478,1.5419
12.0313,508,1.6387
12.0357,531,1.7129
12.0401,507,1.6355
12.0445,476,1.5355
12.0491,505,1.6290
12.0535,533,1.7194
12.0579,522,1.6839
12.0628,480,1.5484
12.0671,484,1.5613
12.0715,526,1.6968
12.0759,534,1.7226
12.0803,505,1.6290
12.0847,487,1.5710
12.0891,495,1.5968
12.0935,512,1.6516
12.0980,501,1.6161
12.1023,478,1.5419
12.1067,476,1.5355
12.1111,506,1.6323
12.1155,540,1.7419
12.1199,523,1.6871
12.1243,486,1.5677
12.1287,483,1.5581
12.1331,514,1.6581
12.1375,519,1.6742
12.1419,504,1.6258
12.1463,508,1.6387
12.1506,538,1.7355
12.1550,554,1.7871
12.1594,540,1.7419
12.1638,520,1.6774
12.1682,526,1.6968
12.1725,556,1.7935
12.1769,557,1.7968
12.1813,514,1.6581
12.1857,492,1.5871
12.1902,528,1.7032
12.1947,542,1.7484
12.1991,504,1.6258
12.2035,471,1.5194
12.2079,483,1.5581
12.2123,519,1.6742
12.2167,535,1.7258
12.2213,500,1.6129
12.2257,475,1.5323
12.2301,497,1.6032
12.2345,521,1.6806
12.2389,497,1.6032
12.2433,456,1.4710
12.2478,452,1.4581
12.2522,476,1.5355
12.2566,483,1.5581
12.2610,466,1.5032
12.2654,493,1.5903
12.2698,588,1.8968
12.2742,727,2.3452
12.2793,880,2.8387
12.2837,997,3.2161
12.2881,1001,3.2290
12.2925,1003,3.2355
12.2969,1002,3.2323
12.3013,992,3.2000
12.3057,804,2.5935
12.3101,624,2.0129
12.3150,504,1.6258
12.3194,413,1.3323
12.3238,356,1.1484
12.3282,362,1.1677
12.3326,403,1.3000
12.3370,422,1.3613
12.3414,402,1.2968
12.3458,390,1.2581
12.3503,423,1.3645
12.3547,452,1.4581
12.3591,431,1.3903
12.3635,391,1.2613
12.3679,406,1.3097
12.3723,445,1.4355
12.3767,449,1.4484
12.3818,415,1.3387
12.3862,404,1.3032
12.3906,436,1.4065
12.3950,465,1.5000
12.3994,450,1.4516
12.4038,421,1.3581
12.4082,438,1.4129
12.4126,478,1.5419
12.4170,485,1.5645
12.4214,452,1.4581
12.4259,439,1.4161
12.4303,470,1.5161
12.4347,508,1.6387
12.4392,488,1.5742
12.4436,460,1.4839
12.4480,461,1.4871
12.4524,493,1.5903
12.4568,512,1.6516
12.4612,491,1.5839
12.4657,467,1.5065
12.4707,513,1.6548
12.4751,551,1.7774
12.4796,524,1.6903
12.4847,498,1.6065
12.4891,507,1.6355
12.4936,539,1.7387
12.4980,550,1.7742
12.5024,531,1.7129
12.5068,512,1.6516
12.5113,532,1.7161
12.5156,546,1.7613
12.5200,539,1.7387
12.5244,525,1.6935
12.5288,524,1.6903
12.5331,536,1.7290
12.5375,523,1.6871
12.5420,488,1.5742
12.5464,464,1.4968
12.5508,493,1.5903
12.5551,509,1.6419
12.5595,486,1.5677
12.5638,465,1.5000
12.5682,476,1.5355
12.5726,503,1.6226
12.5770,506,1.6323
12.5813,481,1.5516
12.5857,484,1.5613
12.5901,516,1.6645
12.5944,503,1.6226
12.5988,459,1.4806
12.6036,423,1.3645
12.6080,432,1.3935
12.6123,481,1.5516
12.6167,500,1.6129
12.6211,468,1.5097
12.6255,447,1.4419
12.6298,478,1.5419
12.6342,521,1.6806
12.6386,514,1.6581
12.6429,484,1.5613
12.6473,491,1.5839
12.6517,520,1.6774
12.6560,530,1.7097
12.6604,503,1.6226
12.6652,481,1.5516
12.6695,492,1.5871
12.6739,515,1.6613
12.6782,508,1.6387
12.6826,473,1.5258
12.6869,469,1.5129
12.6913,502,1.6194
12.6956,523,1.6871
12.7000,511,1.6484
12.7044,499,1.6097
12.7087,496,1.6000
12.7131,511,1.6484
12.7175,507,1.6355
12.7218,481,1.5516
12.7267,482,1.5548
12.7311,518,1.6710
12.7355,526,1.6968
12.7398,524,1.6903
12.7442,525,1.6935
12.7486,525,1.6935
12.7530,524,1.6903
12.7573,511,1.6484
12.7617,489,1.5774
12.7660,473,1.5258
12.7704,471,1.5194
12.7748,490,1.5806
12.7792,477,1.5387
12.7835,440,1.4194
12.7883,453,1.4613
12.7927,493,1.5903
12.7970,496,1.6000
12.8014,469,1.5129
12.8058,446,1.4387
12.8101,487,1.5710
12.8144,520,1.6774
12.8192,511,1.6484
12.8234,475,1.5323
12.8277,473,1.5258
12.8320,504,1.6258
12.8363,518,1.6710
12.8406,489,1.5774
12.8449,462,1.4903
12.8498,486,1.5677
12.8541,518,1.6710
12.8583,513,1.6548
12.8625,484,1.5613
12.8667,484,1.5613
12.8709,517,1.6677
12.8752,543,1.7516
12.8794,529,1.7065
12.8836,496,1.6000
12.8878,499,1.6097
12.8921,540,1.7419
12.8963,567,1.8290
12.9006,539,1.7387
12.9048,501,1.6161
12.9090,497,1.6032
12.9132,520,1.6774
12.9176,519,1.6742
12.9219,485,1.5645
12.9262,463,1.4935
12.9306,481,1.5516
12.9349,499,1.6097
12.9392,483,1.5581
12.9436,460,1.4839
12.9479,460,1.4839
12.9522,496,1.6000
12.9565,512,1.6516
12.9608,479,1.5452
12.9651,454,1.4645
12.9695,474,1.5290
12.9738,498,1.6065
12.9785,484,1.5613
12.9828,447,1.4419
12.9872,462,1.4903
12.9915,535,1.7258
12.9958,628,2.0258
13.0001,695,2.2419
13.0044,781,2.5194
13.0086,918,2.9613
13.0132,1002,3.2323
13.0175,1002,3.2323
13.0217,1001,3.2290
13.0260,977,3.1516
13.0302,840,2.7097
13.0344,702,2.2645
13.0391,552,1.7806
13.0433,429,1.3839
13.0475,379,1.2226
13.0517,396,1.2774
13.0560,422,1.3613
13.0604,399,1.2871
13.0647,376,1.2129
13.0690,403,1.3000
13.0733,457,1.4742
13.0777,466,1.5032
13.0820,422,1.3613
13.0863,391,1.2613
13.0907,414,1.3355
13.0951,443,1.4290
13.0995,430,1.3871
13.1038,415,1.3387
13.1080,427,1.3774
13.1123,464,1.4968
13.1166,483,1.5581
13.1209,464,1.4968
13.1258,451,1.4548
13.1301,471,1.5194
13.1343,490,1.5806
13.1386,476,1.5355
13.1429,450,1.4516
13.1471,463,1.4935
13.1513,497,1.6032
13.1556,517,1.6677
13.1598,507,1.6355
13.1641,487,1.5710
13.1683,497,1.6032
13.1725,519,1.6742
13.1768,519,1.6742
13.1811,496,1.6000
13.1853,491,1.5839
13.1896,518,1.6710
13.1939,556,1.7935
13.1983,578,1.8645
13.2026,541,1.7452
13.2070,511,1.6484
13.2113,523,1.6871
13.2155,543,1.7516
13.2198,529,1.7065
13.2242,503,1.6226
13.2286,518,1.6710
13.2328,552,1.7806
13.2371,558,1.8000
13.2414,526,1.6968
13.2457,508,1.6387
13.2499,526,1.6968
13.2542,549,1.7710
13.2588,544,1.7548
13.2630,506,1.6323
13.2673,489,1.5774
13.2715,502,1.6194
13.2757,523,1.6871
13.2800,511,1.6484
13.2842,476,1.5355
13.2884,466,1.5032
13.2926,487,1.5710
13.2968,491,1.5839
13.3011,459,1.4806
13.3054,442,1.4258
13.3096,466,1.5032
13.3138,499,1.6097
13.3181,502,1.6194
13.3224,461,1.4871
13.3267,441,1.4226
13.3311,472,1.5226
13.3356,504,1.6258
13.3405,488,1.5742
13.3448,462,1.4903
13.3492,475,1.5323
13.3535,500,1.6129
13.3577,504,1.6258
13.3620,479,1.5452
13.3663,470,1.5161
13.3706,497,1.6032
13.3749,523,1.6871
13.3792,514,1.6581
13.3835,484,1.5613
13.3878,487,1.5710
13.3921,518,1.6710
13.3963,533,1.7194
13.4005,507,1.6355
13.4047,485,1.5645
13.4090,497,1.6032
13.4132,519,1.6742
13.4174,515,1.6613
13.4216,483,1.5581
13.4258,470,1.5161
13.4301,494,1.5935
13.4343,523,1.6871
13.4386,519,1.6742
13.4428,481,1.5516
13.4471,466,1.5032
13.4514,498,1.6065
13.4557,524,1.6903
13.4600,505,1.6290
13.4644,470,1.5161
13.4687,469,1.5129
13.4730,503,1.6226
13.4774,518,1.6710
13.4818,489,1.5774
13.4861,467,1.5065
13.4904,491,1.5839
13.4946,519,1.6742
13.4989,502,1.6194
13.5031,465,1.5000
13.5074,461,1.4871
13.5117,495,1.5968
13.5160,512,1.6516
13.5202,487,1.5710
13.5247,459,1.4806
13.5290,476,1.5355
13.5332,508,1.6387
13.5374,515,1.6613
13.5417,485,1.5645
13.5460,473,1.5258
13.5502,501,1.6161
13.5544,537,1.7323
13.5586,534,1.7226
13.5628,501,1.6161
13.5671,497,1.6032
13.5714,530,1.7097
13.5756,550,1.7742
13.5799,529,1.7065
13.5842,501,1.6161
13.5885,522,1.6839
13.5929,562,1.8129
13.5972,564,1.8194
13.6015,536,1.7290
13.6063,524,1.6903
13.6107,548,1.7677
13.6150,563,1.8161
13.6193,545,1.7581
13.6236,507,1.6355
13.6280,497,1.6032
13.6323,521,1.6806
13.6366,528,1.7032
13.6415,490,1.5806
13.6458,471,1.5194
13.6501,502,1.6194
13.6545,535,1.7258
13.6588,525,1.6935
13.6631,486,1.5677
13.6677,473,1.5258
13.6720,501,1.6161
13.6763,512,1.6516
13.6806,480,1.5484
13.6849,442,1.4258
13.6892,451,1.4548
13.6938,491,1.5839
13.6981,528,1.7032
13.7024,559,1.8032
13.7067,632,2.0387
13.7111,776,2.5032
13.7155,942,3.0387
13.7198,999,3.2226
13.7241,1000,3.2258
13.7290,1002,3.2323
13.7333,1000,3.2258
13.7377,948,3.0581
13.7420,740,2.3871
13.7463,563,1.8161
13.7507,465,1.5000
13.7550,421,1.3581
13.7593,391,1.2613
13.7635,375,1.2097
13.7678,388,1.2516
13.7720,418,1.3484
13.7767,427,1.3774
13.7810,401,1.2935
13.7853,379,1.2226
13.7896,400,1.2903
13.7939,437,1.4097
13.7982,444,1.4323
13.8025,419,1.3516
13.8067,410,1.3226
13.8109,438,1.4129
13.8152,466,1.5032
13.8194,460,1.4839
13.8236,436,1.4065
13.8279,436,1.4065
13.8321,452,1.4581
13.8364,463,1.4935
13.8406,444,1.4323
13.8449,425,1.3710
13.8492,444,1.4323
13.8534,480,1.5484
13.8577,490,1.5806
13.8620,466,1.5032
13.8663,451,1.4548
13.8706,481,1.5516
13.8750,517,1.6677
13.8794,510,1.6452
13.8838,471,1.5194
13.8881,467,1.5065
13.8928,509,1.6419
13.8971,527,1.7000
13.9013,500,1.6129
13.9056,482,1.5548
13.9098,513,1.6548
13.9140,556,1.7935
13.9184,550,1.7742
13.9227,515,1.6613
13.9269,498,1.6065
13.9312,529,1.7065
13.9356,560,1.8065
13.9398,546,1.7613
13.9441,518,1.6710
13.9483,521,1.6806
13.9525,552,1.7806
13.9568,571,1.8419
13.9610,553,1.7839
13.9653,519,1.6742
13.9695,517,1.6677
13.9737,530,1.7097
13.9781,523,1.6871
13.9824,485,1.5645
13.9867,464,1.4968
13.9911,482,1.5548
13.9955,502,1.6194
13.9998,488,1.5742
14.0041,456,1.4710
14.0085,456,1.4710
14.0128,489,1.5774
14.0171,499,1.6097
14.0214,466,1.5032
14.0258,442,1.4258
14.0301,465,1.5000
14.0344,494,1.5935
14.0388,493,1.5903
14.0431,472,1.5226
14.0474,471,1.5194
14.0516,500,1.6129
14.0564,517,1.6677
14.0607,488,1.5742
14.0650,462,1.4903
14.0693,479,1.5452
14.0736,519,1.6742
14.0779,534,1.7226
14.0822,500,1.6129
14.0865,481,1.5516
14.0907,509,1.6419
14.0949,537,1.7323
14.0992,534,1.7226
14.1034,499,1.6097
14.1077,488,1.5742
14.1119,512,1.6516
14.1161,539,1.7387
14.1203,526,1.6968
14.1245,496,1.6000
14.1292,499,1.6097
14.1335,527,1.7000
14.1381,524,1.6903
14.1424,496,1.6000
14.1468,487,1.5710
14.1511,511,1.6484
14.1555,534,1.7226
14.1598,518,1.6710
14.1641,483,1.5581
14.1684,482,1.5548
14.1728,521,1.6806
14.1771,542,1.7484
14.1813,512,1.6516
14.1856,489,1.5774
14.1899,508,1.6387
14.1941,537,1.7323
14.1983,531,1.7129
14.2027,489,1.5774
14.2071,474,1.5290
14.2114,502,1.6194
14.2157,529,1.7065
14.2202,518,1.6710
14.2245,489,1.5774
14.2288,490,1.5806
14.2330,512,1.6516
14.2374,518,1.6710
14.2416,492,1.5871
14.2459,478,1.5419
14.2502,508,1.6387
14.2544,534,1.7226
14.2586,516,1.6645
14.2628,476,1.5355
14.2671,466,1.5032
14.2713,498,1.6065
14.2755,527,1.7000
14.2802,512,1.6516
14.2845,485,1.5645
14.2888,496,1.6000
14.2931,534,1.7226
14.2975,546,1.7613
14.3018,521,1.6806
14.3061,503,1.6226
14.3104,528,1.7032
14.3146,564,1.8194
14.3189,571,1.8419
14.3232,539,1.7387
14.3275,517,1.6677
14.3319,539,1.7387
14.3362,559,1.8032
14.3405,526,1.6968
14.3448,488,1.5742
14.3491,485,1.5645
14.3533,512,1.6516
14.3576,517,1.6677
14.3618,489,1.5774
14.3660,467,1.5065
14.3703,492,1.5871
14.3745,523,1.6871
14.3787,523,1.6871
14.3829,490,1.5806
14.3876,471,1.5194
14.3919,486,1.5677
14.3961,498,1.6065
14.4003,476,1.5355
14.4045,446,1.4387
14.4088,463,1.4935
14.4130,531,1.7129
14.4173,603,1.9452
14.4216,644,2.0774
14.4259,721,2.3258
14.4302,891,2.8742
14.4345,1000,3.2258
14.4388,1001,3.2290
14.4431,1004,3.2387
14.4474,1003,3.2355
14.4517,986,3.1806
14.4560,824,2.6581
14.4603,622,2.0065
14.4646,456,1.4710
14.4696,393,1.2677
14.4738,412,1.3290
14.4781,424,1.3677
14.4823,403,1.3000
14.4866,390,1.2581
14.4909,417,1.3452
14.4951,444,1.4323
14.4993,433,1.3968
14.5035,396,1.2774
14.5077,382,1.2323
14.5120,416,1.3419
14.5162,448,1.4452
14.5204,445,1.4355
14.5246,427,1.3774
14.5288,423,1.3645
14.5331,448,1.4452
14.5374,458,1.4774
14.5416,429,1.3839
14.5459,410,1.3226
14.5503,432,1.3935
14.5547,462,1.4903
14.5590,467,1.5065
14.5633,449,1.4484
14.5676,443,1.4290
14.5719,464,1.4968
14.5762,491,1.5839
14.5805,475,1.5323
14.5848,443,1.4290
14.5891,450,1.4516
14.5935,484,1.5613
14.5978,502,1.6194
14.6021,481,1.5516
14.6063,465,1.5000
14.6106,490,1.5806
14.6149,529,1.7065
14.6191,533,1.7194
14.6233,512,1.6516
14.6275,510,1.6452
14.6317,537,1.7323
14.6360,565,1.8226
14.6403,548,1.7677
14.6445,520,1.6774
14.6490,526,1.6968
14.6533,559,1.8032
14.6576,569,1.8355
14.6618,540,1.7419
14.6660,515,1.6613
14.6702,533,1.7194
14.6746,564,1.8194
14.6789,564,1.8194
14.6835,524,1.6903
14.6878,505,1.6290
14.6922,525,1.6935
14.6965,538,1.7355
14.7008,508,1.6387
14.7051,473,1.5258
14.7094,478,1.5419
14.7138,506,1.6323
14.7181,511,1.6484
14.7223,477,1.5387
14.7266,453,1.4613
14.7312,476,1.5355
14.7356,505,1.6290
14.7399,493,1.5903
14.7446,466,1.5032
14.7489,472,1.5226
14.7532,493,1.5903
14.7575,498,1.6065
14.7617,466,1.5032
14.7659,440,1.4194
14.7701,463,1.4935
14.7743,504,1.6258
14.7786,512,1.6516
14.7828,491,1.5839
14.7870,478,1.5419
14.7913,497,1.6032
14.7955,523,1.6871
14.7998,510,1.6452
14.8040,481,1.5516
14.8083,484,1.5613
14.8130,522,1.6839
14.8173,531,1.7129
14.8216,501,1.6161
14.8260,476,1.5355
14.8303,503,1.6226
14.8346,542,1.7484
14.8389,535,1.7258
14.8433,486,1.5677
14.8476,464,1.4968
14.8519,489,1.5774
14.8563,512,1.6516
14.8606,498,1.6065
14.8648,468,1.5097
14.8691,469,1.5129
14.8733,508,1.6387
14.8776,526,1.6968
14.8819,493,1.5903
14.8862,463,1.4935
14.8905,479,1.5452
14.8949,513,1.6548
14.8992,512,1.6516
14.9035,482,1.5548
14.9077,474,1.5290
14.9119,495,1.5968
14.9161,508,1.6387
14.9204,491,1.5839
14.9246,462,1.4903
14.9288,450,1.4516
14.9330,475,1.5323
14.9373,496,1.6000
14.9416,470,1.5161
14.9458,449,1.4484
14.9501,468,1.5097
14.9543,504,1.6258
14.9587,502,1.6194
14.9630,471,1.5194
14.9673,453,1.4613
14.9716,482,1.5548
14.9766,511,1.6484
14.9809,485,1.5645
14.9857,458,1.4774
14.9900,477,1.5387
14.9943,508,1.6387
14.9986,509,1.6419
15.0029,480,1.5484
15.0072,469,1.5129
15.0114,514,1.6581
15.0157,544,1.7548
15.0201,506,1.6323
15.0245,460,1.4839
15.0289,469,1.5129
15.0333,519,1.6742
15.0380,548,1.7677
15.0423,523,1.6871
15.0470,492,1.5871
15.0513,511,1.6484
15.0555,536,1.7290
15.0599,521,1.6806
15.0642,473,1.5258
15.0685,457,1.4742
15.0728,491,1.5839
15.0772,508,1.6387
15.0815,491,1.5839
15.0858,476,1.5355
15.0907,487,1.5710
15.0950,505,1.6290
15.0995,494,1.5935
15.1038,455,1.4677
15.1081,446,1.4387
15.1125,481,1.5516
15.1168,506,1.6323
15.1211,468,1.5097
15.1255,428,1.3806
15.1298,466,1.5032
15.1342,558,1.8000
15.1385,641,2.0677
15.1428,709,2.2871
15.1474,839,2.7065
15.1518,993,3.2032
15.1561,1000,3.2258
15.1609,999,3.2226
15.1652,996,3.2129
15.1696,891,2.8742
15.1739,757,2.4419
15.1782,627,2.0226
15.1826,477,1.5387
15.1874,370,1.1935
15.1917,373,1.2032
15.1960,406,1.3097
15.2003,397,1.2806
15.2047,377,1.2161
15.2090,392,1.2645
15.2133,435,1.4032
15.2177,448,1.4452
15.2223,409,1.3194
15.2267,382,1.2323
15.2310,423,1.3645
15.2354,515,1.6613
15.2397,575,1.8548
15.2441,593,1.9129
15.2484,625,2.0161
15.2527,678,2.1871
15.2571,703,2.2677
15.2614,678,2.1871
15.2657,649,2.0935
15.2701,666,2.1484
15.2744,707,2.2806
15.2787,708,2.2839
15.2830,671,2.1645
15.2882,650,2.0968
15.2925,684,2.2065
15.2968,705,2.2742
15.3011,678,2.1871
15.3055,639,2.0613
15.3099,650,2.0968
15.3142,685,2.2097
15.3185,691,2.2290
15.3228,648,2.0903
15.3272,626,2.0194
15.3315,659,2.1258
15.3358,691,2.2290
15.3402,666,2.1484
15.3445,624,2.0129
15.3494,637,2.0548
15.3538,683,2.2032
15.3583,699,2.2548
15.3626,658,2.1226
15.3669,629,2.0290
15.3712,651,2.1000
15.3755,683,2.2032
15.3799,665,2.1452
15.3842,621,2.0032
15.3890,614,1.9806
15.3933,648,2.0903
15.3976,657,2.1194
15.4019,612,1.9742
15.4066,575,1.8548
15.4109,599,1.9323
15.4152,628,2.0258
15.4196,607,1.9581
15.4239,552,1.7806
15.4282,528,1.7032
15.4325,553,1.7839
15.4369,579,1.8677
15.4412,549,1.7710
15.4456,502,1.6194
15.4499,509,1.6419
15.4543,548,1.7677
15.4586,556,1.7935
15.4629,521,1.6806
15.4672,499,1.6097
15.4722,529,1.7065
15.4765,548,1.7677
15.4809,522,1.6839
15.4853,480,1.5484
15.4897,495,1.5968
15.4940,541,1.7452
15.4984,547,1.7645
15.5027,508,1.6387
15.5070,484,1.5613
15.5114,516,1.6645
15.5157,552,1.7806
15.5200,544,1.7548
15.5243,510,1.6452
15.5286,506,1.6323
15.5335,542,1.7484
15.5378,554,1.7871
15.5421,520,1.6774
15.5465,492,1.5871
15.5508,518,1.6710
15.5551,558,1.8000
15.5594,552,1.7806
15.5637,499,1.6097
15.5680,481,1.5516
15.5723,515,1.6613
15.5767,542,1.7484
15.5810,522,1.6839
15.5854,481,1.5516
15.5897,478,1.5419
15.5940,514,1.6581
15.5984,521,1.6806
15.6027,481,1.5516
15.6070,460,1.4839
15.6113,487,1.5710
15.6156,520,1.6774
15.6200,506,1.6323
15.6243,465,1.5000
15.6286,458,1.4774
15.6329,497,1.6032
15.6373,519,1.6742
15.6416,487,1.5710
15.6459,449,1.4484
15.6502,462,1.4903
15.6546,506,1.6323
15.6589,516,1.6645
15.6633,489,1.5774
15.6676,474,1.5290
15.6719,491,1.5839
15.6768,514,1.6581
15.6812,497,1.6032
15.6855,470,1.5161
15.6899,490,1.5806
15.6942,540,1.7419
15.6985,556,1.7935
15.7029,512,1.6516
15.7072,477,1.5387
15.7115,498,1.6065
15.7158,519,1.6742
15.7201,501,1.6161
15.7245,460,1.4839
15.7288,449,1.4484
15.7331,480,1.5484
15.7375,496,1.6000
15.7418,461,1.4871
15.7461,430,1.3871
15.7505,444,1.4323
15.7548,485,1.5645
15.7591,488,1.5742
15.7634,454,1.4645
15.7678,430,1.3871
15.7721,450,1.4516
15.7764,467,1.5065
15.7807,442,1.4258
15.7851,417,1.3452
15.7897,470,1.5161
15.7941,583,1.8806
15.7984,684,2.2065
15.8028,766,2.4710
15.8071,872,2.8129
15.8114,996,3.2129
15.8159,1002,3.2323
15.8202,1002,3.2323
15.8246,961,3.1000
15.8289,796,2.5677
15.8332,670,2.1613
15.8375,568,1.8323
15.8419,436,1.4065
15.8467,341,1.1000
15.8511,342,1.1032
15.8554,377,1.2161
15.8598,381,1.2290
15.8641,356,1.1484
15.8684,355,1.1452
15.8728,397,1.2806
15.8773,428,1.3806
15.8817,405,1.3065
15.8860,367,1.1839
15.8903,379,1.2226
15.8947,420,1.3548
15.8990,428,1.3806
15.9033,393,1.2677
15.9077,376,1.2129
15.9120,406,1.3097
15.9163,437,1.4097
15.9206,428,1.3806
15.9250,397,1.2806
15.9293,405,1.3065
15.9336,450,1.4516
15.9379,475,1.5323
15.9433,432,1.3935
15.9476,406,1.3097
15.9518,433,1.3968
15.9561,466,1.5032
15.9603,459,1.4806
15.9646,432,1.3935
15.9688,434,1.4000
15.9730,473,1.5258
15.9772,500,1.6129
15.9814,481,1.5516
15.9856,451,1.4548
15.9898,458,1.4774
15.9941,498,1.6065
15.9983,517,1.6677
16.0027,488,1.5742
16.0072,466,1.5032
16.0116,499,1.6097
16.0161,536,1.7290
16.0208,523,1.6871
16.0252,488,1.5742
16.0297,497,1.6032
16.0342,539,1.7387
16.0386,552,1.7806
16.0431,510,1.6452
16.0476,487,1.5710
16.0520,521,1.6806
16.0565,540,1.7419
16.0609,509,1.6419
16.0654,460,1.4839
16.0699,463,1.4935
16.0744,500,1.6129
16.0790,497,1.6032
16.0834,453,1.4613
16.0878,425,1.3710
16.0923,454,1.4645
16.0967,478,1.5419
16.1012,458,1.4774
16.1056,427,1.3774
16.1101,432,1.3935
16.1145,464,1.4968
16.1189,466,1.5032
16.1239,420,1.3548
16.1282,409,1.3194
16.1327,452,1.4581
16.1372,489,1.5774
16.1416,465,1.5000
16.1460,433,1.3968
16.1504,452,1.4581
16.1548,493,1.5903
16.1592,505,1.6290
16.1636,465,1.5000
16.1680,447,1.4419
16.1724,487,1.5710
16.1768,518,1.6710
16.1811,498,1.6065
16.1856,464,1.4968
16.1899,478,1.5419
16.1944,516,1.6645
16.1988,520,1.6774
16.2032,478,1.5419
16.2076,452,1.4581
16.2120,483,1.5581
16.2163,522,1.6839
16.2207,507,1.6355
16.2251,459,1.4806
16.2295,458,1.4774
16.2339,503,1.6226
16.2383,520,1.6774
16.2427,481,1.5516
16.2471,446,1.4387
16.2514,468,1.5097
16.2564,507,1.6355
16.2608,499,1.6097
16.2652,462,1.4903
16.2696,461,1.4871
16.2740,503,1.6226
16.2784,519,1.6742
16.2828,480,1.5484
16.2872,451,1.4548
16.2916,475,1.5323
16.2963,502,1.6194
16.3007,485,1.5645
16.3050,450,1.4516
16.3094,454,1.4645
16.3138,492,1.5871
16.3182,510,1.6452
16.3226,479,1.5452
16.3270,454,1.4645
16.3314,480,1.5484
16.3358,513,1.6548
16.3402,508,1.6387
16.3446,479,1.5452
16.3490,481,1.5516
16.3541,525,1.6935
16.3584,543,1.7516
16.3628,515,1.6613
16.3672,489,1.5774
16.3716,512,1.6516
16.3760,551,1.7774
16.3804,543,1.7516
16.3847,497,1.6032
16.3892,487,1.5710
16.3936,525,1.6935
16.3979,537,1.7323
16.4023,492,1.5871
16.4067,449,1.4484
16.4117,471,1.5194
16.4161,507,1.6355
16.4205,506,1.6323
16.4249,464,1.4968
16.4293,460,1.4839
16.4337,504,1.6258
16.4381,524,1.6903
16.4425,493,1.5903
16.4470,453,1.4613
16.4519,454,1.4645
16.4573,468,1.5097
16.4617,440,1.4194
16.4661,428,1.3806
16.4705,497,1.6032
16.4749,619,1.9968
16.4793,727,2.3452
16.4837,822,2.6516
16.4881,955,3.0806
16.4925,1002,3.2323
16.4969,1001,3.2290
16.5014,1003,3.2355
16.5058,995,3.2097
16.5102,856,2.7613
16.5146,681,2.1968
16.5189,527,1.7000
16.5233,395,1.2742
16.5277,352,1.1355
16.5323,393,1.2677
16.5368,424,1.3677
16.5417,404,1.3032
16.5461,370,1.1935
16.5505,382,1.2323
16.5549,433,1.3968
16.5600,434,1.4000
16.5644,399,1.2871
16.5688,385,1.2419
16.5732,421,1.3581
16.5776,443,1.4290
16.5819,421,1.3581
16.5863,389,1.2548
16.5907,409,1.3194
16.5951,460,1.4839
16.5995,476,1.5355
16.6039,438,1.4129
16.6083,412,1.3290
16.6127,446,1.4387
16.6174,480,1.5484
16.6217,459,1.4806
16.6261,425,1.3710
16.6305,444,1.4323
16.6349,495,1.5968
16.6393,503,1.6226
16.6437,460,1.4839
16.6481,439,1.4161
16.6525,478,1.5419
16.6570,519,1.6742
16.6614,506,1.6323
16.6658,472,1.5226
16.6702,484,1.5613
16.6747,533,1.7194
16.6791,555,1.7903
16.6835,520,1.6774
16.6880,495,1.5968
16.6925,528,1.7032
16.6969,563,1.8161
16.7013,548,1.7677
16.7059,516,1.6645
16.7103,524,1.6903
16.7147,567,1.8290
16.7192,580,1.8710
16.7245,532,1.7161
16.7290,515,1.6613
16.7333,553,1.7839
16.7377,581,1.8742
16.7421,546,1.7613
16.7466,495,1.5968
16.7510,499,1.6097
16.7554,534,1.7226
16.7598,530,1.7097
16.7642,483,1.5581
16.7687,459,1.4806
16.7731,488,1.5742
16.7775,510,1.6452
16.7821,486,1.5677
16.7864,454,1.4645
16.7908,464,1.4968
16.7951,501,1.6161
16.7995,512,1.6516
16.8038,472,1.5226
16.8082,446,1.4387
16.8126,479,1.5452
16.8169,514,1.6581
16.8213,494,1.5935
16.8257,454,1.4645
16.8301,460,1.4839
16.8344,504,1.6258
16.8388,523,1.6871
16.8436,489,1.5774
16.8479,468,1.5097
16.8523,506,1.6323
16.8566,541,1.7452
16.8610,523,1.6871
16.8654,484,1.5613
16.8698,486,1.5677
16.8741,525,1.6935
16.8785,542,1.7484
16.8828,510,1.6452
16.8872,478,1.5419
16.8916,498,1.6065
16.8959,535,1.7258
16.9003,535,1.7258
16.9052,496,1.6000
16.9095,489,1.5774
16.9139,519,1.6742
16.9182,532,1.7161
16.9226,500,1.6129
16.9270,474,1.5290
16.9313,493,1.5903
16.9357,530,1.7097
16.9401,527,1.7000
16.9444,483,1.5581
16.9488,471,1.5194
16.9532,507,1.6355
16.9575,536,1.7290
16.9619,514,1.6581
16.9668,473,1.5258
16.9711,482,1.5548
16.9755,520,1.6774
16.9799,521,1.6806
16.9843,478,1.5419
16.9886,462,1.4903
16.9930,500,1.6129
16.9973,541,1.7452
17.0017,523,1.6871
17.0060,475,1.5323
17.0104,475,1.5323
17.0148,517,1.6677
17.0192,532,1.7161
17.0236,502,1.6194
17.0283,486,1.5677
17.0326,520,1.6774
17.0370,556,1.7935
17.0414,540,1.7419
17.0458,498,1.6065
17.0501,497,1.6032
17.0545,544,1.7548
17.0589,570,1.8387
17.0632,536,1.7290
17.0676,497,1.6032
17.0720,519,1.6742
17.0764,547,1.7645
17.0807,528,1.7032
17.0851,476,1.5355
17.0899,464,1.4968
17.0942,503,1.6226
17.0986,519,1.6742
17.1035,477,1.5387
17.1079,448,1.4452
17.1123,481,1.5516
17.1168,518,1.6710
17.1213,500,1.6129
17.1257,454,1.4645
17.1302,444,1.4323
17.1355,485,1.5645
17.1400,481,1.5516
17.1445,441,1.4226
17.1489,455,1.4677
17.1540,577,1.8613
17.1584,686,2.2129
17.1628,780,2.5161
17.1673,904,2.9161
17.1726,1000,3.2258
17.1770,1001,3.2290
17.1814,1003,3.2355
17.1859,997,3.2161
17.1903,857,2.7645
17.1948,683,2.2032
17.1992,535,1.7258
17.2037,406,1.3097
17.2088,350,1.1290
17.2138,395,1.2742
17.2182,437,1.4097
17.2226,417,1.3452
17.2270,380,1.2258
17.2313,397,1.2806
17.2357,434,1.4000
17.2401,437,1.4097
17.2445,396,1.2774
17.2489,382,1.2323
17.2533,425,1.3710
17.2577,463,1.4935
17.2621,445,1.4355
17.2664,406,1.3097
17.2708,413,1.3323
17.2754,451,1.4548
17.2798,460,1.4839
17.2842,429,1.3839
17.2886,413,1.3323
17.2929,447,1.4419
17.2974,483,1.5581
17.3017,468,1.5097
17.3061,433,1.3968
17.3105,440,1.4194
17.3149,486,1.5677
17.3193,506,1.6323
17.3237,472,1.5226
17.3281,447,1.4419
17.3325,481,1.5516
17.3373,527,1.7000
17.3417,514,1.6581
17.3461,473,1.5258
17.3505,467,1.5065
17.3549,510,1.6452
17.3593,535,1.7258
17.3637,504,1.6258
17.3681,481,1.5516
17.3725,513,1.6548
17.3768,554,1.7871
17.3813,549,1.7710
17.3857,512,1.6516
17.3901,508,1.6387
17.3945,546,1.7613
17.3989,567,1.8290
17.4032,535,1.7258
17.4076,509,1.6419
17.4120,529,1.7065
17.4164,554,1.7871
17.4208,543,1.7516
17.4251,492,1.5871
17.4295,476,1.5355
17.4339,515,1.6613
17.4383,535,1.7258
17.4427,493,1.5903
17.4471,441,1.4226
17.4515,453,1.4613
17.4559,494,1.5935
17.4605,491,1.5839
17.4649,447,1.4419
17.4693,428,1.3806
17.4736,465,1.5000
17.4780,499,1.6097
17.4824,476,1.5355
17.4868,442,1.4258
17.4913,454,1.4645
17.4957,493,1.5903
17.5001,505,1.6290
17.5045,471,1.5194
17.5089,456,1.4710
17.5133,494,1.5935
17.5177,531,1.7129
17.5222,501,1.6161
17.5265,457,1.4742
17.5309,461,1.4871
17.5354,505,1.6290
17.5398,519,1.6742
17.5442,485,1.5645
17.5487,468,1.5097
17.5532,503,1.6226
17.5583,535,1.7258
17.5635,505,1.6290
17.5679,480,1.5484
17.5724,511,1.6484
17.5768,545,1.7581
17.5813,532,1.7161
17.5857,487,1.5710
17.5903,479,1.5452
17.5948,511,1.6484
17.5992,527,1.7000
17.6036,489,1.5774
17.6086,459,1.4806
17.6131,493,1.5903
17.6176,525,1.6935
17.6220,504,1.6258
17.6264,464,1.4968
17.6309,471,1.5194
17.6354,512,1.6516
17.6400,520,1.6774
17.6445,480,1.5484
17.6490,462,1.4903
17.6535,493,1.5903
17.6579,517,1.6677
17.6634,486,1.5677
17.6678,455,1.4677
17.6723,478,1.5419
17.6767,514,1.6581
17.6812,512,1.6516
17.6857,476,1.5355
17.6901,466,1.5032
17.6946,498,1.6065
17.6991,519,1.6742
17.7035,492,1.5871
17.7081,469,1.5129
17.7126,494,1.5935
17.7170,529,1.7065
17.7214,523,1.6871
17.7257,489,1.5774
17.7301,493,1.5903
17.7345,537,1.7323
17.7388,561,1.8097
17.7432,530,1.7097
17.7476,493,1.5903
17.7520,498,1.6065
17.7563,527,1.7000
17.7607,525,1.6935
17.7651,471,1.5194
17.7696,451,1.4548
17.7739,491,1.5839
17.7783,523,1.6871
17.7826,492,1.5871
17.7870,454,1.4645
17.7913,463,1.4935
17.7957,505,1.6290
17.8001,510,1.6452
17.8045,464,1.4968
17.8089,436,1.4065
17.8134,463,1.4935
17.8179,479,1.5452
17.8223,459,1.4806
17.8268,444,1.4323
17.8315,519,1.6742
17.8359,650,2.0968
17.8404,776,2.5032
17.8449,871,2.8097
17.8493,968,3.1226
17.8538,1001,3.2290
17.8582,1002,3.2323
17.8626,992,3.2000
17.8671,841,2.7129
17.8715,682,2.2000
17.8761,580,1.8710
17.8805,473,1.5258
17.8850,368,1.1871
17.8895,339,1.0935
17.8939,383,1.2355
17.8984,422,1.3613
17.9028,414,1.3355
17.9073,392,1.2645
17.9117,409,1.3194
17.9162,444,1.4323
17.9206,443,1.4290
17.9251,404,1.3032
17.9296,393,1.2677
17.9347,439,1.4161
17.9391,464,1.4968
17.9436,431,1.3903
17.9480,402,1.2968
17.9525,426,1.3742
17.9569,471,1.5194
17.9613,468,1.5097
17.9662,430,1.3871
17.9707,431,1.3903
17.9761,477,1.5387
17.9806,481,1.5516
17.9850,451,1.4548
17.9895,441,1.4226
17.9940,471,1.5194
17.9984,497,1.6032
18.0030,468,1.5097
18.0074,436,1.4065
18.0125,470,1.5161
18.0176,522,1.6839
18.0220,514,1.6581
18.0264,478,1.5419
18.0309,481,1.5516
18.0354,525,1.6935
18.0399,546,1.7613
18.0444,516,1.6645
18.0488,496,1.6000
18.0533,530,1.7097
18.0578,573,1.8484
18.0631,556,1.7935
18.0675,521,1.6806
18.0719,530,1.7097
18.0763,561,1.8097
18.0807,564,1.8194
18.0851,530,1.7097
18.0895,517,1.6677
18.0939,549,1.7710
18.0983,561,1.8097
18.1027,522,1.6839
18.1071,480,1.5484
18.1115,485,1.5645
18.1159,517,1.6677
18.1206,523,1.6871
18.1249,478,1.5419
18.1293,453,1.4613
18.1337,480,1.5484
18.1380,506,1.6323
18.1424,490,1.5806
18.1468,457,1.4742
18.1512,455,1.4677
18.1556,493,1.5903
18.1600,505,1.6290
18.1643,467,1.5065
18.1687,443,1.4290
18.1731,475,1.5323
18.1775,513,1.6548
18.1824,505,1.6290
18.1868,479,1.5452
18.1913,485,1.5645
18.1958,521,1.6806
18.2002,532,1.7161
18.2046,494,1.5935
18.2091,471,1.5194
18.2135,502,1.6194
18.2185,539,1.7387
18.2236,515,1.6613
18.2279,482,1.5548
18.2323,500,1.6129
18.2369,544,1.7548
18.2413,534,1.7226
18.2457,490,1.5806
18.2501,475,1.5323
18.2545,514,1.6581
18.2589,539,1.7387
18.2633,509,1.6419
18.2677,477,1.5387
18.2721,489,1.5774
18.2765,525,1.6935
18.2809,526,1.6968
18.2853,489,1.5774
18.2896,473,1.5258
18.2940,503,1.6226
18.2984,526,1.6968
18.3028,506,1.6323
18.3072,470,1.5161
18.3116,473,1.5258
18.3159,513,1.6548
18.3203,524,1.6903
18.3247,481,1.5516
18.3291,459,1.4806
18.3335,495,1.5968
18.3379,526,1.6968
18.3423,514,1.6581
18.3469,477,1.5387
18.3513,483,1.5581
18.3557,526,1.6968
18.3600,537,1.7323
18.3644,508,1.6387
18.3699,492,1.5871
18.3743,539,1.7387
18.3787,577,1.8613
18.3831,554,1.7871
18.3879,505,1.6290
18.3923,509,1.6419
18.3967,542,1.7484
18.4010,535,1.7258
18.4055,489,1.5774
18.4099,467,1.5065
18.4144,494,1.5935
18.4189,515,1.6613
18.4234,487,1.5710
18.4278,458,1.4774
18.4325,479,1.5452
18.4370,520,1.6774
18.4415,519,1.6742
18.4460,475,1.5323
18.4504,461,1.4871
18.4548,489,1.5774
18.4592,499,1.6097
18.4636,459,1.4806
18.4680,428,1.3806
18.4725,478,1.5419
18.4769,587,1.8935
18.4814,679,2.1903
18.4858,758,2.4452
18.4913,921,2.9710
18.4957,1002,3.2323
18.5002,1003,3.2355
18.5046,1001,3.2290
18.5090,990,3.1935
18.5134,859,2.7710
18.5179,706,2.2774
18.5223,551,1.7774
18.5267,404,1.3032
18.5312,350,1.1290
18.5357,390,1.2581
18.5402,422,1.3613
18.5446,400,1.2903
18.5491,379,1.2226
18.5535,408,1.3161
18.5579,444,1.4323
18.5624,435,1.4032
18.5669,395,1.2742
18.5720,395,1.2742
18.5765,436,1.4065
18.5809,450,1.4516
18.5852,421,1.3581
18.5896,403,1.3000
18.5944,443,1.4290
18.5988,475,1.5323
18.6031,454,1.4645
18.6075,418,1.3484
18.6118,430,1.3871
18.6162,472,1.5226
18.6206,484,1.5613
18.6249,444,1.4323
18.6293,425,1.3710
18.6336,463,1.4935
18.6380,496,1.6000
18.6424,492,1.5871
18.6468,455,1.4677
18.6513,461,1.4871
18.6561,512,1.6516
18.6605,525,1.6935
18.6649,495,1.5968
18.6692,471,1.5194
18.6736,504,1.6258
18.6780,541,1.7452
18.6824,533,1.7194
18.6869,504,1.6258
18.6913,513,1.6548
18.6957,558,1.8000
18.7001,575,1.8548
18.7045,541,1.7452
18.7089,516,1.6645
18.7133,545,1.7581
18.7178,578,1.8645
18.7222,569,1.8355
18.7266,527,1.7000
18.7310,516,1.6645
18.7355,553,1.7839
18.7399,567,1.8290
18.7442,524,1.6903
18.7487,490,1.5806
18.7530,512,1.6516
18.7575,544,1.7548
18.7618,529,1.7065
18.7662,476,1.5355
18.7706,461,1.4871
18.7750,494,1.5935
18.7796,520,1.6774
18.7839,487,1.5710
18.7883,445,1.4355
18.7927,462,1.4903
18.7971,498,1.6065
18.8015,499,1.6097
18.8058,462,1.4903
18.8103,448,1.4452
18.8147,485,1.5645
18.8190,516,1.6645
18.8234,496,1.6000
18.8279,467,1.5065
18.8322,486,1.5677
18.8366,523,1.6871
18.8411,530,1.7097
18.8456,489,1.5774
18.8500,468,1.5097
18.8544,508,1.6387
18.8588,542,1.7484
18.8632,524,1.6903
18.8675,486,1.5677
18.8719,494,1.5935
18.8763,540,1.7419
18.8807,550,1.7742
18.8851,503,1.6226
18.8895,473,1.5258
18.8939,505,1.6290
18.8983,539,1.7387
18.9029,521,1.6806
18.9073,476,1.5355
18.9117,481,1.5516
18.9160,524,1.6903
18.9209,540,1.7419
18.9253,500,1.6129
18.9297,471,1.5194
18.9341,502,1.6194
18.9385,536,1.7290
18.9429,518,1.6710
18.9473,479,1.5452
18.9517,480,1.5484
18.9561,518,1.6710
18.9605,530,1.7097
18.9649,491,1.5839
18.9693,461,1.4871
18.9737,488,1.5742
18.9781,526,1.6968
18.9825,514,1.6581
18.9869,473,1.5258
18.9913,468,1.5097
18.9957,507,1.6355
19.0001,525,1.6935
19.0044,493,1.5903
19.0089,469,1.5129
19.0133,498,1.6065
19.0176,538,1.7355
19.0220,524,1.6903
19.0263,481,1.5516
19.0307,480,1.5484
19.0351,528,1.7032
19.0394,558,1.8000
19.0438,535,1.7258
19.0482,500,1.6129
19.0526,518,1.6710
19.0570,568,1.8323
19.0613,574,1.8516
19.0664,523,1.6871
19.0708,500,1.6129
19.0752,529,1.7065
19.0796,541,1.7452
19.0840,502,1.6194
19.0883,467,1.5065
19.0927,481,1.5516
19.0971,517,1.6677
19.1015,511,1.6484
19.1059,474,1.5290
19.1103,462,1.4903
19.1147,501,1.6161
19.1191,533,1.7194
19.1234,504,1.6258
19.1277,456,1.4710
19.1319,448,1.4452
19.1361,479,1.5452
19.1402,489,1.5774
19.1444,462,1.4903
19.1489,463,1.4935
19.1531,537,1.7323
19.1573,649,2.0935
19.1615,760,2.4516
19.1656,860,2.7742
19.1713,1000,3.2258
19.1756,1003,3.2355
19.1799,1003,3.2355
19.1842,1000,3.2258
19.1884,969,3.1258
19.1927,788,2.5419
19.1970,630,2.0323
19.2012,503,1.6226
19.2055,401,1.2935
19.2097,362,1.1677
19.2138,393,1.2677
19.2180,429,1.3839
19.2222,424,1.3677
19.2264,392,1.2645
19.2306,381,1.2290
19.2347,418,1.3484
19.2389,448,1.4452
19.2431,432,1.3935
19.2473,397,1.2806
19.2514,397,1.2806
19.2556,438,1.4129
19.2598,464,1.4968
19.2640,435,1.4032
19.2682,401,1.2935
19.2723,416,1.3419
19.2765,463,1.4935
19.2807,480,1.5484
19.2849,446,1.4387
19.2890,415,1.3387
19.2932,436,1.4065
19.2974,479,1.5452
19.3016,487,1.5710
19.3057,457,1.4742
19.3099,445,1.4355
19.3141,477,1.5387
19.3183,507,1.6355
19.3225,496,1.6000
19.3266,460,1.4839
19.3308,453,1.4613
19.3350,495,1.5968
19.3392,534,1.7226
19.3433,513,1.6548
19.3475,473,1.5258
19.3517,475,1.5323
19.3559,519,1.6742
19.3601,548,1.7677
19.3642,529,1.7065
19.3684,503,1.6226
19.3726,515,1.6613
19.3768,554,1.7871
19.3809,566,1.8258
19.3851,534,1.7226
19.3893,511,1.6484
19.3936,538,1.7355
19.3979,577,1.8613
19.4021,574,1.8516
19.4064,533,1.7194
19.4105,514,1.6581
19.4148,543,1.7516
19.4189,564,1.8194
19.4231,543,1.7516
19.4273,503,1.6226
19.4315,499,1.6097
19.4356,529,1.7065
19.4398,543,1.7516
19.4440,511,1.6484
19.4482,466,1.5032
19.4524,465,1.5000
19.4565,501,1.6161
19.4607,513,1.6548
19.4649,479,1.5452
19.4691,450,1.4516
19.4732,469,1.5129
19.4774,505,1.6290
19.4816,511,1.6484
19.4858,476,1.5355
19.4900,455,1.4677
19.4941,488,1.5742
19.4983,526,1.6968
19.5025,524,1.6903
19.5067,487,1.5710
19.5108,471,1.5194
19.5150,512,1.6516
19.5192,546,1.7613
19.5234,523,1.6871
19.5276,485,1.5645
19.5317,485,1.5645
19.5359,525,1.6935
19.5401,549,1.7710
19.5443,519,1.6742
19.5484,484,1.5613
19.5526,496,1.6000
19.5568,538,1.7355
19.5610,547,1.7645
19.5652,510,1.6452
19.5693,479,1.5452
19.5735,499,1.6097
19.5777,537,1.7323
19.5819,536,1.7290
19.5861,496,1.6000
19.5902,480,1.5484
19.5944,514,1.6581
19.5986,541,1.7452
19.6028,520,1.6774
19.6069,475,1.5323
19.6111,467,1.5065
19.6153,508,1.6387
19.6195,538,1.7355
19.6237,514,1.6581
19.6279,471,1.5194
19.6320,471,1.5194
19.6362,512,1.6516
19.6404,535,1.7258
19.6446,507,1.6355
19.6487,469,1.5129
19.6529,477,1.5387
19.6571,513,1.6548
19.6613,525,1.6935
19.6655,489,1.5774
19.6696,462,1.4903
19.6738,489,1.5774
19.6780,529,1.7065
19.6822,526,1.6968
19.6863,488,1.5742
19.6905,471,1.5194
19.6947,499,1.6097
19.6989,527,1.7000
19.7030,510,1.6452
19.7072,470,1.5161
19.7114,468,1.5097
19.7156,510,1.6452
19.7198,540,1.7419
19.7240,522,1.6839
19.7281,487,1.5710
19.7323,491,1.5839
19.7365,535,1.7258
19.7407,560,1.8065
19.7448,537,1.7323
19.7490,512,1.6516
19.7532,527,1.7000
19.7574,563,1.8161
19.7616,564,1.8194
19.7657,520,1.6774
19.7699,489,1.5774
19.7741,507,1.6355
19.7783,528,1.7032
19.7824,514,1.6581
19.7866,470,1.5161
19.7908,455,1.4677
19.7950,490,1.5806
19.7992,526,1.6968
19.8033,516,1.6645
19.8075,472,1.5226
19.8117,460,1.4839
19.8159,492,1.5871
19.8200,510,1.6452
19.8242,476,1.5355
19.8284,436,1.4065
19.8326,440,1.4194
19.8368,475,1.5323
19.8409,505,1.6290
19.8451,520,1.6774
19.8493,565,1.8226
19.8535,677,2.1839
19.8576,844,2.7226
19.8618,990,3.1935
19.8660,1003,3.2355
19.8702,1002,3.2323
19.8744,1003,3.2355
19.8785,1001,3.2290
19.8827,952,3.0710
19.8869,737,2.3774
19.8911,553,1.7839
19.8952,465,1.5000
19.8994,432,1.3935
19.9036,398,1.2839
19.9078,365,1.1774
19.9119,370,1.1935
19.9161,419,1.3516
19.9203,446,1.4387
19.9245,419,1.3516
19.9287,386,1.2452
19.9328,401,1.2935
19.9370,443,1.4290
19.9412,460,1.4839
19.9454,428,1.3806
19.9495,400,1.2903
19.9537,418,1.3484
19.9579,459,1.4806
19.9621,462,1.4903
19.9663,425,1.3710
19.9704,404,1.3032
19.9746,440,1.4194
19.9788,476,1.5355
19.9830,475,1.5323
19.9872,436,1.4065
19.9928,430,1.3871
19.9971,473,1.5258
20.0013,490,1.5806
20.0055,462,1.4903
20.0097,438,1.4129
20.0149,478,1.5419
20.0199,508,1.6387
20.0243,486,1.5677
20.0287,452,1.4581
20.0331,468,1.5097
20.0373,515,1.6613
20.0416,531,1.7129
20.0458,504,1.6258
20.0500,478,1.5419
20.0542,505,1.6290
20.0584,546,1.7613
20.0626,548,1.7677
20.0668,511,1.6484
20.0709,495,1.5968
20.0751,528,1.7032
20.0793,565,1.8226
20.0835,557,1.7968
20.0876,518,1.6710
20.0918,510,1.6452
20.0960,545,1.7581
20.1002,573,1.8484
20.1044,547,1.7645
20.1085,507,1.6355
20.1127,505,1.6290
20.1169,539,1.7387
20.1212,549,1.7710
20.1254,508,1.6387
20.1297,469,1.5129
20.1345,494,1.5935
20.1389,530,1.7097
20.1432,515,1.6613
20.1475,468,1.5097
20.1519,449,1.4484
20.1562,478,1.5419
20.1606,502,1.6194
20.1649,475,1.5323
20.1692,444,1.4323
20.1735,463,1.4935
20.1779,499,1.6097
20.1823,502,1.6194
20.1866,465,1.5000
20.1909,450,1.4516
20.1953,487,1.5710
20.1996,523,1.6871
20.2039,506,1.6323
20.2083,466,1.5032
20.2126,471,1.5194
20.2169,512,1.6516
20.2214,522,1.6839
20.2257,491,1.5839
20.2300,469,1.5129
20.2343,492,1.5871
20.2386,531,1.7129
20.2429,530,1.7097
20.2472,486,1.5677
20.2515,481,1.5516
20.2558,519,1.6742
20.2602,538,1.7355
20.2645,513,1.6548
20.2687,477,1.5387
20.2730,487,1.5710
20.2773,522,1.6839
20.2816,531,1.7129
20.2859,496,1.6000
20.2903,468,1.5097
20.2947,500,1.6129
20.2992,534,1.7226
20.3035,521,1.6806
20.3078,478,1.5419
20.3121,470,1.5161
20.3164,510,1.6452
20.3208,533,1.7194
20.3251,501,1.6161
20.3294,466,1.5032
20.3337,476,1.5355
20.3380,515,1.6613
20.3423,521,1.6806
20.3466,490,1.5806
20.3509,473,1.5258
20.3552,504,1.6258
20.3595,531,1.7129
20.3638,516,1.6645
20.3681,479,1.5452
20.3724,472,1.5226
20.3767,512,1.6516
20.3810,536,1.7290
20.3853,506,1.6323
20.3896,464,1.4968
20.3939,474,1.5290
20.3982,513,1.6548
20.4025,528,1.7032
20.4068,500,1.6129
20.4112,480,1.5484
20.4155,514,1.6581
20.4198,546,1.7613
20.4241,531,1.7129
20.4284,502,1.6194
20.4327,521,1.6806
20.4370,561,1.8097
20.4413,570,1.8387
20.4456,538,1.7355
20.4499,500,1.6129
20.4542,500,1.6129
20.4585,521,1.6806
20.4628,512,1.6516
20.4671,474,1.5290
20.4714,464,1.4968
20.4757,496,1.6000
20.4800,519,1.6742
20.4844,499,1.6097
20.4886,466,1.5032
20.4929,475,1.5323
20.4972,511,1.6484
20.5015,521,1.6806
20.5058,475,1.5323
20.5101,447,1.4419
20.5144,464,1.4968
20.5187,489,1.5774
20.5230,489,1.5774
20.5273,485,1.5645
20.5316,537,1.7323
20.5359,655,2.1129
20.5402,797,2.5710
20.5445,906,2.9226
20.5488,988,3.1871
20.5531,1001,3.2290
20.5574,999,3.2226
20.5617,997,3.2161
20.5660,860,2.7742
20.5703,675,2.1774
20.5746,572,1.8452
20.5788,504,1.6258
20.5831,425,1.3710
20.5874,359,1.1581
20.5917,355,1.1452
20.5960,402,1.2968
20.6002,440,1.4194
20.6045,425,1.3710
20.6088,395,1.2742
20.6131,399,1.2871
20.6174,439,1.4161
20.6216,462,1.4903
20.6259,433,1.3968
20.6302,404,1.3032
20.6345,426,1.3742
20.6387,464,1.4968
20.6433,458,1.4774
20.6476,424,1.3677
20.6519,421,1.3581
20.6562,460,1.4839
20.6604,486,1.5677
20.6647,461,1.4871
20.6690,428,1.3806
20.6733,440,1.4194
20.6776,480,1.5484
20.6818,494,1.5935
20.6861,464,1.4968
20.6904,445,1.4355
20.6947,472,1.5226
20.6990,506,1.6323
20.7032,499,1.6097
20.7075,461,1.4871
20.7118,454,1.4645
20.7161,501,1.6161
20.7204,535,1.7258
20.7248,514,1.6581
20.7291,479,1.5452
20.7334,495,1.5968
20.7376,538,1.7355
20.7419,560,1.8065
20.7462,527,1.7000
20.7505,500,1.6129
20.7547,529,1.7065
20.7592,563,1.8161
20.7635,559,1.8032
20.7677,522,1.6839
20.7720,518,1.6710
20.7763,555,1.7903
20.7806,584,1.8839
20.7848,556,1.7935
20.7891,516,1.6645
20.7934,519,1.6742
20.7977,554,1.7871
20.8019,557,1.7968
20.8064,514,1.6581
20.8107,479,1.5452
20.8150,501,1.6161
20.8193,530,1.7097
20.8236,512,1.6516
20.8278,463,1.4935
20.8321,448,1.4452
20.8364,486,1.5677
20.8406,518,1.6710
20.8449,492,1.5871
20.8492,452,1.4581
20.8535,462,1.4903
20.8578,501,1.6161
20.8620,513,1.6548
20.8663,477,1.5387
20.8706,452,1.4581
20.8749,481,1.5516
20.8792,516,1.6645
20.8835,516,1.6645
20.8883,478,1.5419
20.8927,476,1.5355
20.8971,518,1.6710
20.9014,537,1.7323
20.9057,509,1.6419
20.9101,481,1.5516
20.9144,498,1.6065
20.9187,537,1.7323
20.9229,536,1.7290
20.9272,496,1.6000
20.9315,479,1.5452
20.9358,511,1.6484
20.9401,537,1.7323
20.9443,521,1.6806
20.9486,484,1.5613
20.9528,483,1.5581
20.9571,520,1.6774
20.9614,541,1.7452
20.9657,513,1.6548
20.9702,478,1.5419
20.9745,495,1.5968
20.9787,530,1.7097
20.9830,527,1.7000
20.9873,486,1.5677
20.9915,467,1.5065
20.9958,500,1.6129
21.0001,527,1.7000
21.0044,505,1.6290
21.0086,468,1.5097
21.0129,470,1.5161
21.0172,509,1.6419
21.0214,531,1.7129
21.0257,497,1.6032
21.0299,458,1.4774
21.0342,470,1.5161
21.0386,512,1.6516
21.0428,518,1.6710
21.0471,483,1.5581
21.0513,463,1.4935
21.0556,492,1.5871
21.0598,524,1.6903
21.0641,512,1.6516
21.0684,479,1.5452
21.0727,484,1.5613
21.0770,524,1.6903
21.0813,544,1.7548
21.0855,522,1.6839
21.0898,490,1.5806
21.0941,511,1.6484
21.0984,555,1.7903
21.1027,563,1.8161
21.1069,517,1.6677
21.1113,488,1.5742
21.1156,512,1.6516
21.1200,532,1.7161
21.1243,509,1.6419
21.1285,462,1.4903
21.1329,461,1.4871
21.1373,501,1.6161
21.1416,521,1.6806
21.1459,484,1.5613
21.1502,454,1.4645
21.1545,475,1.5323
21.1588,510,1.6452
21.1631,512,1.6516
21.1674,470,1.5161
21.1717,445,1.4355
21.1760,472,1.5226
21.1803,495,1.5968
21.1846,464,1.4968
21.1890,427,1.3774
21.1934,461,1.4871
21.1978,567,1.8290
21.2022,668,2.1548
21.2065,754,2.4323
21.2108,877,2.8290
21.2151,1000,3.2258
21.2194,1003,3.2355
21.2237,1004,3.2387
21.2280,999,3.2226
21.2323,958,3.0903
21.2367,795,2.5645
21.2411,643,2.0742
21.2454,479,1.5452
21.2497,368,1.1871
21.2540,361,1.1645
21.2583,408,1.3161
21.2626,429,1.3839
21.2669,402,1.2968
21.2712,386,1.2452
21.2755,417,1.3452
21.2798,447,1.4419
21.2841,432,1.3935
21.2884,391,1.2613
21.2927,391,1.2613
21.2970,434,1.4000
21.3013,463,1.4935
21.3056,441,1.4226
21.3099,413,1.3323
21.3142,428,1.3806
21.3185,468,1.5097
21.3228,470,1.5161
21.3271,433,1.3968
21.3314,412,1.3290
21.3356,444,1.4323
21.3399,484,1.5613
21.3443,476,1.5355
21.3486,440,1.4194
21.3529,445,1.4355
21.3572,484,1.5613
21.3615,502,1.6194
21.3658,472,1.5226
21.3701,443,1.4290
21.3744,463,1.4935
21.3787,510,1.6452
21.3830,520,1.6774
21.3873,480,1.5484
21.3915,464,1.4968
21.3958,504,1.6258
21.4001,544,1.7548
21.4044,541,1.7452
21.4087,503,1.6226
21.4130,506,1.6323
21.4173,543,1.7516
21.4216,564,1.8194
21.4259,533,1.7194
21.4302,502,1.6194
21.4345,527,1.7000
21.4388,573,1.8484
21.4431,578,1.8645
21.4474,540,1.7419
21.4517,516,1.6645
21.4560,542,1.7484
21.4603,565,1.8226
21.4646,542,1.7484
21.4689,494,1.5935
21.4732,489,1.5774
21.4775,531,1.7129
21.4818,546,1.7613
21.4861,509,1.6419
21.4904,468,1.5097
21.4947,480,1.5484
21.4990,516,1.6645
21.5033,517,1.6677
21.5076,472,1.5226
21.5119,443,1.4290
21.5162,473,1.5258
21.5205,511,1.6484
21.5248,493,1.5903
21.5291,457,1.4742
21.5333,458,1.4774
21.5376,500,1.6129
21.5419,522,1.6839
21.5463,493,1.5903
21.5505,463,1.4935
21.5549,485,1.5645
21.5592,521,1.6806
21.5635,523,1.6871
21.5678,488,1.5742
21.5721,475,1.5323
21.5765,512,1.6516
21.5808,545,1.7581
21.5851,523,1.6871
21.5894,486,1.5677
21.5937,487,1.5710
21.5980,528,1.7032
21.6023,545,1.7581
21.6066,508,1.6387
21.6109,477,1.5387
21.6152,500,1.6129
21.6195,543,1.7516
21.6238,537,1.7323
21.6281,496,1.6000
21.6324,475,1.5323
21.6367,507,1.6355
21.6410,532,1.7161
21.6453,511,1.6484
21.6496,474,1.5290
21.6539,481,1.5516
21.6582,523,1.6871
21.6625,537,1.7323
21.6668,500,1.6129
21.6711,468,1.5097
21.6755,492,1.5871
21.6798,521,1.6806
21.6841,516,1.6645
21.6884,480,1.5484
21.6927,469,1.5129
21.6970,510,1.6452
21.7013,532,1.7161
21.7056,503,1.6226
21.7099,469,1.5129
21.7142,479,1.5452
21.7185,520,1.6774
21.7228,529,1.7065
21.7271,492,1.5871
21.7314,471,1.5194
21.7357,501,1.6161
21.7400,544,1.7548
21.7442,538,1.7355
21.7485,494,1.5935
21.7529,490,1.5806
21.7571,531,1.7129
21.7615,564,1.8194
21.7658,551,1.7774
21.7701,516,1.6645
21.7744,517,1.6677
21.7787,545,1.7581
21.7830,552,1.7806
21.7873,509,1.6419
21.7917,471,1.5194
21.7961,494,1.5935
21.8005,520,1.6774
21.8048,504,1.6258
21.8091,471,1.5194
21.8134,470,1.5161
21.8177,507,1.6355
21.8220,523,1.6871
21.8263,488,1.5742
21.8306,455,1.4677
21.8349,471,1.5194
21.8392,500,1.6129
21.8435,497,1.6032
21.8478,453,1.4613
21.8521,428,1.3806
21.8564,468,1.5097
21.8607,531,1.7129
21.8650,582,1.8774
21.8693,629,2.0290
21.8737,746,2.4065
21.8779,937,3.0226
21.8822,1003,3.2355
21.8865,1002,3.2323
21.8908,1000,3.2258
21.8951,1000,3.2258
21.8998,970,3.1290
21.9042,780,2.5161
21.9085,561,1.8097
21.9128,424,1.3677
21.9171,407,1.3129
21.9214,427,1.3774
21.9257,406,1.3097
21.9300,370,1.1935
21.9343,380,1.2258
21.9386,425,1.3710
21.9429,440,1.4194
21.9472,406,1.3097
21.9515,383,1.2355
21.9558,414,1.3355
21.9601,458,1.4774
21.9644,449,1.4484
21.9687,407,1.3129
21.9730,401,1.2935
21.9773,439,1.4161
21.9816,466,1.5032
21.9859,440,1.4194
21.9902,411,1.3258
21.9945,424,1.3677
21.9988,473,1.5258
22.0031,487,1.5710
22.0073,451,1.4548
22.0116,429,1.3839
22.0159,461,1.4871
22.0202,501,1.6161
22.0245,494,1.5935
22.0288,459,1.4806
22.0332,456,1.4710
22.0375,493,1.5903
22.0418,514,1.6581
22.0460,488,1.5742
22.0503,454,1.4645
22.0545,471,1.5194
22.0588,517,1.6677
22.0631,532,1.7161
22.0674,501,1.6161
22.0717,482,1.5548
22.0760,517,1.6677
22.0803,559,1.8032
22.0846,553,1.7839
22.0889,516,1.6645
22.0933,508,1.6387
22.0977,548,1.7677
22.1021,574,1.8516
22.1064,550,1.7742
22.1107,514,1.6581
22.1150,525,1.6935
22.1193,558,1.8000
22.1236,558,1.8000
22.1279,518,1.6710
22.1322,497,1.6032
22.1365,522,1.6839
22.1408,547,1.7645
22.1451,522,1.6839
22.1494,477,1.5387
22.1537,471,1.5194
22.1580,507,1.6355
22.1623,517,1.6677
22.1666,476,1.5355
22.1709,442,1.4258
22.1752,456,1.4710
22.1794,496,1.6000
22.1837,503,1.6226
22.1880,461,1.4871
22.1923,440,1.4194
22.1965,470,1.5161
22.2008,503,1.6226
22.2051,491,1.5839
22.2093,453,1.4613
22.2136,455,1.4677
22.2178,503,1.6226
22.2221,531,1.7129
22.2264,505,1.6290
22.2307,476,1.5355
22.2349,490,1.5806
22.2392,526,1.6968
22.2435,533,1.7194
22.2477,494,1.5935
22.2520,472,1.5226
22.2562,503,1.6226
22.2605,540,1.7419
22.2647,530,1.7097
22.2691,488,1.5742
22.2733,478,1.5419
22.2777,513,1.6548
22.2819,534,1.7226
22.2862,507,1.6355
22.2905,474,1.5290
22.2948,486,1.5677
22.2991,525,1.6935
22.3034,532,1.7161
22.3077,493,1.5903
22.3120,470,1.5161
22.3163,498,1.6065
22.3206,529,1.7065
22.3249,512,1.6516
22.3292,471,1.5194
22.3335,470,1.5161
22.3378,512,1.6516
22.3421,532,1.7161
22.3464,499,1.6097
22.3507,463,1.4935
22.3550,479,1.5452
22.3593,511,1.6484
22.3636,512,1.6516
22.3679,466,1.5032
22.3723,446,1.4387
22.3766,481,1.5516
22.3809,518,1.6710
22.3852,507,1.6355
22.3895,470,1.5161
22.3938,473,1.5258
22.3981,514,1.6581
22.4024,529,1.7065
22.4067,502,1.6194
22.4110,477,1.5387
22.4153,503,1.6226
22.4196,547,1.7645
22.4239,556,1.7935
22.4282,520,1.6774
22.4326,494,1.5935
22.4368,523,1.6871
22.4412,547,1.7645
22.4455,513,1.6548
22.4499,456,1.4710
22.4542,449,1.4484
22.4585,490,1.5806
22.4629,508,1.6387
22.4672,475,1.5323
22.4715,446,1.4387
22.4758,477,1.5387
22.4802,511,1.6484
22.4845,497,1.6032
22.4888,458,1.4774
22.4932,448,1.4452
22.4975,480,1.5484
22.5018,493,1.5903
22.5061,454,1.4645
22.5105,418,1.3484
22.5148,449,1.4484
22.5191,546,1.7613
22.5235,632,2.0387
22.5278,702,2.2645
22.5321,818,2.6387
22.5365,991,3.1968
22.5408,1003,3.2355
22.5451,1002,3.2323
22.5494,1000,3.2258
22.5538,958,3.0903
22.5581,804,2.5935
22.5624,650,2.0968
22.5667,490,1.5806
22.5711,371,1.1968
22.5756,357,1.1516
22.5799,402,1.2968
22.5842,417,1.3452
22.5886,385,1.2419
22.5929,369,1.1903
22.5972,408,1.3161
22.6015,446,1.4387
22.6058,428,1.3806
22.6101,388,1.2516
22.6144,389,1.2548
22.6187,432,1.3935
22.6230,450,1.4516
22.6273,420,1.3548
22.6316,395,1.2742
22.6359,426,1.3742
22.6402,468,1.5097
22.6445,467,1.5065
22.6488,431,1.3903
22.6531,419,1.3516
22.6574,456,1.4710
22.6617,494,1.5935
22.6660,478,1.5419
22.6703,441,1.4226
22.6746,443,1.4290
22.6790,487,1.5710
22.6833,504,1.6258
22.6876,474,1.5290
22.6920,457,1.4742
22.6964,491,1.5839
22.7012,527,1.7000
22.7055,524,1.6903
22.7099,492,1.5871
22.7142,486,1.5677
22.7185,525,1.6935
22.7229,552,1.7806
22.7272,528,1.7032
22.7315,505,1.6290
22.7358,528,1.7032
22.7407,576,1.8581
22.7450,567,1.8290
22.7494,535,1.7258
22.7537,532,1.7161
22.7580,571,1.8419
22.7624,589,1.9000
22.7667,559,1.8032
22.7710,527,1.7000
22.7754,541,1.7452
22.7798,578,1.8645
22.7841,576,1.8581
22.7884,530,1.7097
22.7926,499,1.6097
22.7969,521,1.6806
22.8012,550,1.7742
22.8055,524,1.6903
22.8098,480,1.5484
22.8141,468,1.5097
22.8184,506,1.6323
22.8227,526,1.6968
22.8270,492,1.5871
22.8313,456,1.4710
22.8356,467,1.5065
22.8399,504,1.6258
22.8442,506,1.6323
22.8485,467,1.5065
22.8528,445,1.4355
22.8571,476,1.5355
22.8614,510,1.6452
22.8657,497,1.6032
22.8700,461,1.4871
22.8744,468,1.5097
22.8787,514,1.6581
22.8830,532,1.7161
22.8874,501,1.6161
22.8917,474,1.5290
22.8960,496,1.6000
22.9004,536,1.7290
22.9047,534,1.7226
22.9090,497,1.6032
22.9134,488,1.5742
22.9177,523,1.6871
22.9220,539,1.7387
22.9264,516,1.6645
22.9307,478,1.5419
22.9350,485,1.5645
22.9393,521,1.6806
22.9437,530,1.7097
22.9480,493,1.5903
22.9523,468,1.5097
22.9567,498,1.6065
22.9610,532,1.7161
22.9655,518,1.6710
22.9698,476,1.5355
22.9741,471,1.5194
22.9785,512,1.6516
22.9828,535,1.7258
22.9871,499,1.6097
22.9914,461,1.4871
22.9958,476,1.5355
23.0005,518,1.6710
23.0048,512,1.6516
23.0091,474,1.5290
23.0135,462,1.4903
23.0177,498,1.6065
23.0220,525,1.6935
23.0263,507,1.6355
23.0306,479,1.5452
23.0349,487,1.5710
23.0392,527,1.7000
23.0435,543,1.7516
23.0478,515,1.6613
23.0521,496,1.6000
23.0564,523,1.6871
23.0607,564,1.8194
23.0650,557,1.7968
23.0693,514,1.6581
23.0736,494,1.5935
23.0779,513,1.6548
23.0822,528,1.7032
23.0865,497,1.6032
23.0908,459,1.4806
23.0951,466,1.5032
23.0994,501,1.6161
23.1037,511,1.6484
23.1080,474,1.5290
23.1123,449,1.4484
23.1166,479,1.5452
23.1209,514,1.6581
23.1251,499,1.6097
23.1294,454,1.4645
23.1337,435,1.4032
23.1380,464,1.4968
23.1423,489,1.5774
23.1466,473,1.5258
23.1509,471,1.5194
23.1552,545,1.7581
23.1595,673,2.1710
23.1638,813,2.6226
23.1681,903,2.9129
23.1724,980,3.1613
23.1767,1000,3.2258
23.1810,999,3.2226
23.1854,979,3.1581
23.1897,804,2.5935
23.1940,641,2.0677
23.1984,556,1.7935
23.2027,480,1.5484
23.2070,385,1.2419
23.2114,331,1.0677
23.2157,353,1.1387
23.2200,404,1.3032
23.2243,418,1.3484
23.2287,381,1.2290
23.2330,368,1.1871
23.2374,409,1.3194
23.2417,451,1.4548
23.2460,435,1.4032
23.2503,394,1.2710
23.2547,394,1.2710
23.2590,436,1.4065
23.2633,460,1.4839
23.2677,428,1.3806
23.2720,399,1.2871
23.2763,423,1.3645
23.2807,469,1.5129
23.2850,468,1.5097
23.2893,424,1.3677
23.2936,412,1.3290
23.2979,450,1.4516
23.3021,486,1.5677
23.3064,477,1.5387
23.3107,443,1.4290
23.3150,446,1.4387
23.3193,485,1.5645
23.3236,502,1.6194
23.3279,472,1.5226
23.3322,449,1.4484
23.3365,481,1.5516
23.3408,529,1.7065
23.3451,527,1.7000
23.3494,486,1.5677
23.3537,473,1.5258
23.3580,513,1.6548
23.3623,545,1.7581
23.3665,531,1.7129
23.3708,499,1.6097
23.3751,510,1.6452
23.3795,557,1.7968
23.3838,572,1.8452
23.3882,535,1.7258
23.3925,508,1.6387
23.3968,538,1.7355
23.4012,571,1.8419
23.4055,566,1.8258
23.4099,529,1.7065
23.4142,507,1.6355
23.4185,536,1.7290
23.4229,552,1.7806
23.4272,515,1.6613
23.4315,480,1.5484
23.4359,496,1.6000
23.4402,533,1.7194
23.4445,525,1.6935
23.4489,471,1.5194
23.4532,442,1.4258
23.4575,475,1.5323
23.4619,512,1.6516
23.4662,502,1.6194
23.4705,462,1.4903
23.4748,460,1.4839
23.4792,498,1.6065
23.4835,513,1.6548
23.4878,480,1.5484
23.4921,450,1.4516
23.4964,476,1.5355
23.5007,518,1.6710
23.5050,520,1.6774
23.5093,479,1.5452
23.5136,467,1.5065
23.5179,504,1.6258
23.5222,542,1.7484
23.5264,520,1.6774
23.5307,479,1.5452
23.5350,482,1.5548
23.5394,530,1.7097
23.5437,551,1.7774
23.5479,512,1.6516
23.5522,475,1.5323
23.5565,497,1.6032
23.5608,538,1.7355
23.5651,539,1.7387
23.5694,501,1.6161
23.5737,489,1.5774
23.5780,527,1.7000
23.5823,550,1.7742
23.5866,523,1.6871
23.5909,475,1.5323
23.5954,475,1.5323
23.5999,520,1.6774
23.6043,534,1.7226
23.6086,501,1.6161
23.6129,473,1.5258
23.6172,501,1.6161
23.6216,533,1.7194
23.6259,517,1.6677
23.6302,470,1.5161
23.6345,463,1.4935
23.6389,506,1.6323
23.6432,534,1.7226
23.6476,503,1.6226
23.6519,462,1.4903
23.6562,478,1.5419
23.6606,521,1.6806
23.6649,527,1.7000
23.6697,484,1.5613
23.6740,469,1.5129
23.6784,505,1.6290
23.6827,540,1.7419
23.6870,526,1.6968
23.6913,494,1.5935
23.6956,509,1.6419
23.6999,548,1.7677
23.7042,560,1.8065
23.7085,531,1.7129
23.7128,508,1.6387
23.7171,529,1.7065
23.7214,553,1.7839
23.7257,542,1.7484
23.7300,491,1.5839
23.7342,466,1.5032
23.7386,497,1.6032
23.7429,526,1.6968
23.7472,500,1.6129
23.7514,463,1.4935
23.7557,466,1.5032
23.7600,506,1.6323
23.7643,516,1.6645
23.7686,483,1.5581
23.7729,462,1.4903
23.7772,485,1.5645
23.7815,505,1.6290
23.7858,480,1.5484
23.7903,433,1.3968
23.7947,429,1.3839
23.7990,478,1.5419
23.8034,530,1.7097
23.8077,556,1.7935
23.8121,604,1.9484
23.8164,741,2.3903
23.8207,934,3.0129
23.8250,1001,3.2290
23.8294,1002,3.2323
23.8337,1001,3.2290
23.8380,1000,3.2258
23.8424,973,3.1387
23.8467,771,2.4871
23.8510,560,1.8065
23.8554,439,1.4161
23.8597,416,1.3419
23.8641,417,1.3452
23.8684,382,1.2323
23.8727,360,1.1613
23.8770,400,1.2903
23.8814,445,1.4355
23.8857,442,1.4258
23.8901,400,1.2903
23.8945,390,1.2581
23.8989,430,1.3871
23.9032,460,1.4839
23.9076,434,1.4000
23.9118,399,1.2871
23.9161,417,1.3452
23.9204,464,1.4968
23.9247,470,1.5161
23.9290,427,1.3774
23.9333,408,1.3161
23.9376,444,1.4323
23.9419,486,1.5677
23.9462,478,1.5419
23.9505,439,1.4161
23.9548,437,1.4097
23.9591,481,1.5516
23.9634,517,1.6677
23.9676,488,1.5742
23.9720,444,1.4323
23.9763,459,1.4806
23.9806,503,1.6226
23.9849,512,1.6516
23.9892,481,1.5516
23.9935,468,1.5097
23.9978,497,1.6032
24.0021,532,1.7161
24.0063,526,1.6968
24.0106,491,1.5839
24.0149,489,1.5774
24.0192,533,1.7194
24.0235,564,1.8194
24.0278,541,1.7452
24.0321,508,1.6387
24.0364,523,1.6871
24.0407,565,1.8226
24.0450,576,1.8581
24.0493,542,1.7484
24.0536,521,1.6806
24.0579,555,1.7903
24.0622,587,1.8935
24.0665,567,1.8290
24.0708,512,1.6516
24.0751,499,1.6097
24.0794,534,1.7226
24.0837,552,1.7806
24.0880,516,1.6645
24.0924,480,1.5484
24.0967,491,1.5839
24.1010,518,1.6710
24.1055,507,1.6355
24.1098,461,1.4871
24.1141,445,1.4355
24.1185,481,1.5516
24.1228,513,1.6548
24.1271,489,1.5774
24.1315,450,1.4516
24.1358,458,1.4774
24.1401,505,1.6290
24.1445,522,1.6839
24.1488,487,1.5710
24.1531,459,1.4806
24.1575,485,1.5645
24.1618,526,1.6968
24.1661,519,1.6742
24.1704,482,1.5548
24.1748,477,1.5387
24.1791,519,1.6742
24.1834,544,1.7548
24.1878,514,1.6581
24.1921,482,1.5548
24.1964,499,1.6097
24.2007,540,1.7419
24.2050,548,1.7677
24.2093,513,1.6548
24.2136,491,1.5839
24.2179,519,1.6742
24.2222,554,1.7871
24.2265,547,1.7645
24.2307,508,1.6387
24.2350,496,1.6000
24.2394,530,1.7097
24.2437,551,1.7774
24.2480,522,1.6839
24.2523,490,1.5806
24.2566,504,1.6258
24.2608,545,1.7581
24.2651,545,1.7581
24.2694,504,1.6258
24.2737,477,1.5387
24.2780,502,1.6194
24.2823,532,1.7161
24.2866,520,1.6774
24.2909,484,1.5613
24.2952,479,1.5452
24.2996,518,1.6710
24.3039,540,1.7419
24.3082,511,1.6484
24.3125,477,1.5387
24.3169,490,1.5806
24.3212,521,1.6806
24.3255,523,1.6871
24.3299,486,1.5677
24.3342,472,1.5226
24.3386,513,1.6548
24.3429,546,1.7613
24.3472,529,1.7065
24.3516,498,1.6065
24.3559,507,1.6355
24.3602,548,1.7677
24.3646,566,1.8258
24.3689,539,1.7387
24.3732,509,1.6419
24.3775,534,1.7226
24.3819,563,1.8161
24.3862,550,1.7742
24.3907,509,1.6419
24.3950,496,1.6000
24.3993,523,1.6871
24.4036,541,1.7452
24.4079,506,1.6323
24.4122,465,1.5000
24.4165,472,1.5226
24.4208,513,1.6548
24.4251,520,1.6774
24.4294,488,1.5742
24.4337,469,1.5129
24.4380,501,1.6161
24.4423,529,1.7065
24.4466,508,1.6387
24.4509,459,1.4806
24.4552,439,1.4161
24.4595,467,1.5065
24.4638,492,1.5871
24.4681,495,1.5968
24.4724,522,1.6839
24.4767,617,1.9903
24.4809,764,2.4645
24.4852,915,2.9516
24.4896,1000,3.2258
24.4949,1002,3.2323
24.4994,1002,3.2323
24.5038,1003,3.2355
24.5081,948,3.0581
24.5124,727,2.3452
24.5167,561,1.8097
24.5209,479,1.5452
24.5252,436,1.4065
24.5295,388,1.2516
24.5338,369,1.1903
24.5381,401,1.2935
24.5424,435,1.4032
24.5468,431,1.3903
24.5510,399,1.2871
24.5554,401,1.2935
24.5597,443,1.4290
24.5640,463,1.4935
24.5682,427,1.3774
24.5725,394,1.2710
24.5768,413,1.3323
24.5811,457,1.4742
24.5855,464,1.4968
24.5898,424,1.3677
24.5941,404,1.3032
24.5984,443,1.4290
24.6027,482,1.5548
24.6070,468,1.5097
24.6113,431,1.3903
24.6156,433,1.3968
24.6198,475,1.5323
24.6241,496,1.6000
24.6284,463,1.4935
24.6327,434,1.4000
24.6372,457,1.4742
24.6415,508,1.6387
24.6457,513,1.6548
24.6500,473,1.5258
24.6542,450,1.4516
24.6585,482,1.5548
24.6627,521,1.6806
24.6670,514,1.6581
24.6713,486,1.5677
24.6756,486,1.5677
24.6798,529,1.7065
24.6841,557,1.7968
24.6884,531,1.7129
24.6926,498,1.6065
24.6969,515,1.6613
24.7012,559,1.8032
24.7055,572,1.8452
24.7098,533,1.7194
24.7141,512,1.6516
24.7184,540,1.7419
24.7227,569,1.8355
24.7270,555,1.7903
24.7313,512,1.6516
24.7356,510,1.6452
24.7399,545,1.7581
24.7442,556,1.7935
24.7485,513,1.6548
24.7528,475,1.5323
24.7571,489,1.5774
24.7614,519,1.6742
24.7657,513,1.6548
24.7700,470,1.5161
24.7743,450,1.4516
24.7786,485,1.5645
24.7828,513,1.6548
24.7871,499,1.6097
24.7915,460,1.4839
24.7959,456,1.4710
24.8003,496,1.6000
24.8046,519,1.6742
24.8089,484,1.5613
24.8132,448,1.4452
24.8175,464,1.4968
24.8218,505,1.6290
24.8260,512,1.6516
24.8303,474,1.5290
24.8346,455,1.4677
24.8388,492,1.5871
24.8431,532,1.7161
24.8474,520,1.6774
24.8517,488,1.5742
24.8560,488,1.5742
24.8602,524,1.6903
24.8645,538,1.7355
24.8688,504,1.6258
24.8731,474,1.5290
24.8773,490,1.5806
24.8816,529,1.7065
24.8859,534,1.7226
24.8901,499,1.6097
24.8945,484,1.5613
24.8988,518,1.6710
24.9030,543,1.7516
24.9073,517,1.6677
24.9116,478,1.5419
24.9159,478,1.5419
24.9201,519,1.6742
24.9244,541,1.7452
24.9287,511,1.6484
24.9330,476,1.5355
24.9373,492,1.5871
24.9415,528,1.7032
24.9458,527,1.7000
24.9500,488,1.5742
24.9543,467,1.5065
24.9586,494,1.5935
24.9628,524,1.6903
24.9671,511,1.6484
24.9714,472,1.5226
24.9756,462,1.4903
24.9799,496,1.6000
24.9841,522,1.6839
24.9884,499,1.6097
24.9926,460,1.4839
24.9969,468,1.5097
25.0013,508,1.6387
25.0055,514,1.6581
25.0098,480,1.5484
25.0142,460,1.4839
25.0185,495,1.5968
25.0228,530,1.7097
25.0272,524,1.6903
25.0317,484,1.5613
25.0362,480,1.5484
25.0413,528,1.7032
25.0471,527,1.7000
25.0517,497,1.6032
25.0561,506,1.6323
25.0604,548,1.7677
25.0647,557,1.7968
25.0690,517,1.6677
25.0733,477,1.5387
25.0776,484,1.5613
25.0819,511,1.6484
25.0862,509,1.6419
25.0905,471,1.5194
25.0948,458,1.4774
25.0991,487,1.5710
25.1034,513,1.6548
25.1076,494,1.5935
25.1119,455,1.4677
25.1161,454,1.4645
25.1204,493,1.5903
25.1246,506,1.6323
25.1288,470,1.5161
25.1331,433,1.3968
25.1373,443,1.4290
25.1416,474,1.5290
25.1458,490,1.5806
25.1500,494,1.5935
25.1543,542,1.7484
25.1585,657,2.1194
25.1628,811,2.6161
25.1670,936,3.0194
25.1713,999,3.2226
25.1755,1001,3.2290
25.1798,1001,3.2290
25.1840,997,3.2161
25.1882,868,2.8000
25.1925,673,2.1710
25.1967,540,1.7419
25.2010,470,1.5161
25.2053,418,1.3484
25.2096,369,1.1903
25.2139,346,1.1161
25.2182,381,1.2290
25.2225,428,1.3806
25.2267,429,1.3839
25.2310,398,1.2839
25.2353,390,1.2581
25.2396,427,1.3774
25.2439,457,1.4742
25.2482,438,1.4129
25.2525,407,1.3129
25.2568,421,1.3581
25.2610,462,1.4903
25.2654,472,1.5226
25.2696,443,1.4290
25.2739,424,1.3677
25.2782,451,1.4548
25.2825,487,1.5710
25.2868,485,1.5645
25.2911,448,1.4452
25.2954,440,1.4194
25.2997,483,1.5581
25.3040,514,1.6581
25.3083,490,1.5806
25.3126,449,1.4484
25.3169,458,1.4774
25.3212,505,1.6290
25.3255,528,1.7032
25.3298,499,1.6097
25.3341,472,1.5226
25.3384,499,1.6097
25.3427,535,1.7258
25.3470,535,1.7258
25.3513,508,1.6387
25.3556,499,1.6097
25.3599,538,1.7355
25.3642,566,1.8258
25.3685,548,1.7677
25.3728,516,1.6645
25.3771,532,1.7161
25.3814,577,1.8613
25.3857,590,1.9032
25.3901,548,1.7677
25.3944,520,1.6774
25.3988,548,1.7677
25.4032,582,1.8774
25.4076,571,1.8419
25.4118,528,1.7032
25.4161,520,1.6774
25.4204,558,1.8000
25.4246,577,1.8613
25.4289,546,1.7613
25.4332,497,1.6032
25.4378,491,1.5839
25.4421,517,1.6677
25.4463,518,1.6710
25.4506,481,1.5516
25.4548,461,1.4871
25.4591,490,1.5806
25.4634,518,1.6710
25.4676,499,1.6097
25.4719,458,1.4774
25.4762,453,1.4613
25.4804,486,1.5677
25.4847,510,1.6452
25.4890,486,1.5677
25.4932,454,1.4645
25.4975,476,1.5355
25.5017,519,1.6742
25.5060,528,1.7032
25.5103,484,1.5613
25.5146,459,1.4806
25.5189,487,1.5710
25.5231,523,1.6871
25.5274,521,1.6806
25.5317,493,1.5903
25.5360,486,1.5677
25.5403,516,1.6645
25.5446,536,1.7290
25.5489,509,1.6419
25.5532,478,1.5419
25.5575,494,1.5935
25.5618,532,1.7161
25.5661,538,1.7355
25.5704,500,1.6129
25.5747,477,1.5387
25.5790,509,1.6419
25.5833,539,1.7387
25.5876,524,1.6903
25.5919,484,1.5613
25.5962,478,1.5419
25.6005,518,1.6710
25.6048,546,1.7613
25.6091,517,1.6677
25.6134,474,1.5290
25.6177,479,1.5452
25.6220,516,1.6645
25.6263,527,1.7000
25.6306,491,1.5839
25.6349,470,1.5161
25.6392,498,1.6065
25.6435,526,1.6968
25.6477,510,1.6452
25.6521,469,1.5129
25.6563,467,1.5065
25.6607,507,1.6355
25.6650,531,1.7129
25.6693,498,1.6065
25.6736,466,1.5032
25.6779,485,1.5645
25.6822,519,1.6742
25.6865,523,1.6871
25.6908,484,1.5613
25.6952,469,1.5129
25.6995,515,1.6613
25.7038,554,1.7871
25.7081,538,1.7355
25.7124,500,1.6129
25.7169,499,1.6097
25.7213,534,1.7226
25.7256,546,1.7613
25.7298,510,1.6452
25.7342,476,1.5355
25.7386,493,1.5903
25.7429,517,1.6677
25.7472,500,1.6129
25.7516,452,1.4581
25.7559,442,1.4258
25.7603,482,1.5548
25.7646,512,1.6516
25.7689,489,1.5774
25.7732,453,1.4613
25.7776,458,1.4774
25.7819,488,1.5742
25.7862,487,1.5710
25.7906,442,1.4258
25.7949,415,1.3387
25.7992,443,1.4290
25.8037,497,1.6032
25.8080,531,1.7129
25.8123,564,1.8194
25.8166,664,2.1419
25.8209,836,2.6968
25.8252,988,3.1871
25.8295,1000,3.2258
25.8338,1001,3.2290
25.8381,999,3.2226
25.8424,986,3.1806
25.8467,841,2.7129
25.8510,642,2.0710
25.8553,498,1.6065
25.8596,434,1.4000
25.8639,406,1.3097
25.8682,377,1.2161
25.8725,350,1.1290
25.8768,368,1.1871
25.8811,416,1.3419
25.8854,442,1.4258
25.8897,414,1.3355
25.8940,378,1.2194
25.8983,394,1.2710
25.9026,432,1.3935
25.9069,438,1.4129
25.9113,403,1.3000
25.9156,389,1.2548
25.9199,429,1.3839
25.9243,460,1.4839
25.9286,442,1.4258
25.9329,407,1.3129
25.9372,415,1.3387
25.9416,458,1.4774
25.9459,479,1.5452
25.9503,449,1.4484
25.9546,423,1.3645
25.9589,460,1.4839
25.9633,500,1.6129
25.9676,494,1.5935
25.9719,451,1.4548
25.9762,443,1.4290
25.9806,481,1.5516
25.9849,508,1.6387
25.9892,487,1.5710
25.9936,459,1.4806
25.9979,480,1.5484
26.0022,524,1.6903
26.0066,532,1.7161
26.0109,500,1.6129
26.0152,485,1.5645
26.0195,522,1.6839
26.0238,563,1.8161
26.0281,552,1.7806
26.0324,512,1.6516
26.0367,508,1.6387
26.0410,555,1.7903
26.0453,578,1.8645
26.0496,548,1.7677
26.0539,511,1.6484
26.0582,531,1.7129
26.0625,571,1.8419
26.0668,569,1.8355
26.0711,524,1.6903
26.0754,493,1.5903
26.0797,516,1.6645
26.0840,540,1.7419
26.0883,515,1.6613
26.0926,470,1.5161
26.0969,463,1.4935
26.1011,501,1.6161
26.1055,516,1.6645
26.1098,477,1.5387
26.1141,436,1.4065
26.1185,448,1.4452
26.1228,491,1.5839
26.1271,493,1.5903
26.1315,451,1.4548
26.1358,434,1.4000
26.1401,476,1.5355
26.1445,514,1.6581
26.1488,492,1.5871
26.1531,444,1.4323
26.1575,442,1.4258
26.1618,489,1.5774
26.1661,507,1.6355
26.1705,475,1.5323
26.1748,458,1.4774
26.1791,487,1.5710
26.1834,522,1.6839
26.1878,513,1.6548
26.1921,476,1.5355
26.1964,468,1.5097
26.2008,511,1.6484
26.2051,537,1.7323
26.2094,507,1.6355
26.2137,471,1.5194
26.2180,485,1.5645
26.2223,523,1.6871
26.2266,530,1.7097
26.2309,498,1.6065
26.2352,479,1.5452
26.2395,510,1.6452
26.2438,534,1.7226
26.2481,519,1.6742
26.2524,476,1.5355
26.2567,473,1.5258
26.2610,513,1.6548
26.2653,532,1.7161
26.2696,501,1.6161
26.2739,463,1.4935
26.2782,478,1.5419
26.2824,521,1.6806
26.2867,526,1.6968
26.2911,487,1.5710
26.2955,469,1.5129
26.2999,506,1.6323
26.3043,537,1.7323
26.3087,510,1.6452
26.3131,464,1.4968
26.3174,467,1.5065
26.3217,510,1.6452
26.3260,529,1.7065
26.3303,491,1.5839
26.3345,460,1.4839
26.3388,482,1.5548
26.3431,520,1.6774
26.3474,524,1.6903
26.3517,487,1.5710
26.3560,481,1.5516
26.3603,525,1.6935
26.3646,550,1.7742
26.3689,523,1.6871
26.3732,484,1.5613
26.3775,496,1.6000
26.3818,548,1.7677
26.3861,570,1.8387
26.3904,537,1.7323
26.3947,500,1.6129
26.3990,520,1.6774
26.4032,551,1.7774
26.4075,535,1.7258
26.4118,482,1.5548
26.4162,462,1.4903
26.4205,495,1.5968
26.4249,527,1.7000
26.4292,503,1.6226
26.4335,464,1.4968
26.4379,467,1.5065
26.4422,505,1.6290
26.4465,517,1.6677
26.4508,484,1.5613
26.4552,451,1.4548
26.4595,473,1.5258
26.4639,497,1.6032
26.4682,478,1.5419
26.4725,433,1.3968
26.4769,442,1.4258
26.4812,525,1.6935
26.4855,622,2.0065
26.4899,684,2.2065
26.4942,777,2.5065
26.4985,944,3.0452
26.5029,1000,3.2258
26.5072,1002,3.2323
26.5115,1002,3.2323
26.5158,999,3.2226
26.5201,923,2.9774
26.5244,744,2.4000
26.5287,553,1.7839
26.5330,399,1.2871
26.5373,353,1.1387
