time_s,adc_raw,voltage
0.0000,613,1.9774
0.0057,676,2.1806
0.0101,1004,3.2387
0.0146,1004,3.2387
0.0337,1004,3.2387
0.0382,961,3.1000
0.0427,713,2.3000
0.0472,966,3.1161
0.0517,1004,3.2387
0.0563,1002,3.2323
0.0608,823,2.6548
0.0655,776,2.5032
0.0704,1003,3.2355
0.0750,1004,3.2387
0.0795,902,2.9097
0.0841,701,2.2613
0.0887,1005,3.2419
0.0932,1004,3.2387
0.0979,983,3.1710
0.1025,734,2.3677
0.1070,949,3.0613
0.1116,1004,3.2387
0.1162,1001,3.2290
0.1207,819,2.6419
0.1253,741,2.3903
0.1298,1005,3.2419
0.1344,1003,3.2355
0.1390,920,2.9677
0.1436,687,2.2161
0.1482,1003,3.2355
0.1528,1004,3.2387
0.1574,994,3.2065
0.1620,744,2.4000
0.1665,871,2.8097
0.1711,1006,3.2452
0.1757,1003,3.2355
0.1802,841,2.7129
0.1848,710,2.2903
0.1894,1005,3.2419
0.1940,1005,3.2419
0.1986,953,3.0742
0.2031,703,2.2677
0.2077,1000,3.2258
0.2121,1004,3.2387
0.2167,1000,3.2258
0.2212,805,2.5968
0.2257,782,2.5226
0.2301,1005,3.2419
0.2345,1003,3.2355
0.2390,919,2.9645
0.2434,686,2.2129
0.2479,1002,3.2323
0.2524,1004,3.2387
0.2569,997,3.2161
0.2615,762,2.4581
0.2660,810,2.6129
0.2707,1004,3.2387
0.2754,1003,3.2355
0.2802,830,2.6774
0.2850,705,2.2742
0.2895,1004,3.2387
0.2940,1004,3.2387
0.2986,922,2.9742
0.3198,837,2.7000
0.3332,1003,3.2355
0.3380,949,3.0613
0.3492,1006,3.2452
0.3539,1002,3.2323
0.3585,920,2.9677
0.3692,1002,3.2323
0.3778,944,3.0452
0.3892,1003,3.2355
0.3937,1004,3.2387
0.3982,941,3.0355
0.4026,690,2.2258
0.4072,962,3.1032
0.4117,1005,3.2419
0.4161,1002,3.2323
0.4205,807,2.6032
0.4250,711,2.2935
0.4294,1004,3.2387
0.4339,1003,3.2355
0.4384,946,3.0516
0.4457,786,2.5355
0.4502,1005,3.2419
0.4547,1003,3.2355
0.4593,908,2.9290
0.4638,697,2.2484
0.4683,1003,3.2355
0.4728,1002,3.2323
0.4773,995,3.2097
0.4817,754,2.4323
0.4862,840,2.7097
0.4906,1004,3.2387
0.4951,1003,3.2355
0.4995,884,2.8516
0.5039,665,2.1452
0.5084,1002,3.2323
0.5128,1004,3.2387
0.5173,981,3.1645
0.5219,719,2.3194
0.5264,847,2.7323
0.5308,1003,3.2355
0.5354,1001,3.2290
0.5399,851,2.7452
0.5444,685,2.2097
0.5488,1002,3.2323
0.5533,1003,3.2355
0.5577,973,3.1387
0.5622,721,2.3258
0.5666,895,2.8871
0.5710,1005,3.2419
0.5754,1001,3.2290
0.5798,870,2.8065
0.5842,697,2.2484
0.5886,1005,3.2419
0.5931,1004,3.2387
0.5975,987,3.1839
0.6019,745,2.4032
0.6064,866,2.7935
0.6109,1003,3.2355
0.6153,1002,3.2323
0.6198,837,2.7000
0.6244,689,2.2226
0.6289,1004,3.2387
0.6336,1003,3.2355
0.6381,949,3.0613
0.6426,704,2.2710
0.6470,958,3.0903
0.6515,1005,3.2419
0.6559,1000,3.2258
0.6604,817,2.6355
0.6649,713,2.3000
0.6693,1005,3.2419
0.6738,1003,3.2355
0.6784,950,3.0645
0.6829,719,2.3194
0.6874,1002,3.2323
0.6918,1003,3.2355
0.6963,1000,3.2258
0.7008,888,2.8645
0.7053,763,2.4613
0.7099,1003,3.2355
0.7176,808,2.6065
0.7222,585,1.8871
0.7267,880,2.8387
0.7312,1004,3.2387
0.7357,1000,3.2258
0.7402,820,2.6452
0.7448,706,2.2774
0.7493,1003,3.2355
0.7538,1004,3.2387
0.7583,925,2.9839
0.7628,676,2.1806
0.7674,993,3.2032
0.7718,1005,3.2419
0.7764,996,3.2129
0.7809,769,2.4806
0.7855,755,2.4355
0.7899,1004,3.2387
0.7944,1001,3.2290
0.7989,897,2.8935
0.8035,679,2.1903
0.8081,1003,3.2355
0.8126,1003,3.2355
0.8172,983,3.1710
0.8217,727,2.3452
0.8263,864,2.7871
0.8308,1005,3.2419
0.8353,1002,3.2323
0.8398,841,2.7129
0.8443,687,2.2161
0.8489,1005,3.2419
0.8536,1004,3.2387
0.8581,946,3.0516
0.8627,695,2.2419
0.8672,991,3.1968
0.8717,1004,3.2387
0.8762,999,3.2226
0.8807,788,2.5419
0.8853,753,2.4290
0.8899,1005,3.2419
0.8946,1001,3.2290
0.8992,883,2.8484
0.9039,686,2.2129
0.9087,1005,3.2419
0.9135,1004,3.2387
0.9181,944,3.0452
0.9227,684,2.2065
0.9273,998,3.2194
0.9319,1006,3.2452
0.9365,998,3.2194
0.9411,762,2.4581
0.9457,808,2.6065
0.9503,1005,3.2419
0.9549,1003,3.2355
0.9595,879,2.8355
0.9640,702,2.2645
0.9699,1003,3.2355
0.9744,1003,3.2355
0.9790,890,2.8710
0.9838,686,2.2129
0.9883,1003,3.2355
0.9929,1002,3.2323
0.9975,968,3.1226
1.0020,693,2.2355
1.0066,905,2.9194
1.0114,1006,3.2452
1.0160,999,3.2226
1.0206,762,2.4581
1.0254,743,2.3968
1.0300,1005,3.2419
1.0346,1002,3.2323
1.0392,842,2.7161
1.0437,644,2.0774
1.0483,1005,3.2419
1.0531,1003,3.2355
1.0576,959,3.0935
1.0624,698,2.2516
1.0671,985,3.1774
1.0717,1002,3.2323
1.0763,997,3.2161
1.0808,756,2.4387
1.0854,758,2.4452
1.0899,1003,3.2355
1.0945,1002,3.2323
1.0990,874,2.8194
1.1037,668,2.1548
1.1083,1003,3.2355
1.1130,1002,3.2323
1.1178,943,3.0419
1.1225,678,2.1871
1.1271,964,3.1097
1.1316,1005,3.2419
1.1361,998,3.2194
1.1407,758,2.4452
1.1452,732,2.3613
1.1498,1004,3.2387
1.1544,1001,3.2290
1.1589,885,2.8548
1.1636,674,2.1742
1.1683,1003,3.2355
1.1729,1003,3.2355
1.1776,971,3.1323
1.1821,715,2.3065
1.1868,945,3.0484
1.1917,1002,3.2323
1.1966,993,3.2032
1.2016,707,2.2806
1.2062,861,2.7774
1.2108,1005,3.2419
1.2155,1002,3.2323
1.2201,824,2.6581
1.2247,718,2.3161
1.2293,1005,3.2419
1.2340,1002,3.2323
1.2385,921,2.9710
1.2431,671,2.1645
1.2478,1004,3.2387
1.2523,1004,3.2387
1.2569,992,3.2000
1.2616,742,2.3935
1.2661,860,2.7742
1.2706,1005,3.2419
1.2754,1000,3.2258
1.2800,821,2.6484
1.2846,709,2.2871
1.2892,1004,3.2387
1.2939,1003,3.2355
1.2985,909,2.9323
1.3032,669,2.1581
1.3078,1003,3.2355
1.3198,824,2.6581
1.3245,752,2.4258
1.3291,1004,3.2387
1.3338,1004,3.2387
1.3383,990,3.1935
1.3430,771,2.4871
1.3476,1003,3.2355
1.3521,1003,3.2355
1.3566,993,3.2032
1.3612,751,2.4226
1.3657,811,2.6161
1.3702,1004,3.2387
1.3748,1003,3.2355
1.3794,852,2.7484
1.3840,679,2.1903
1.3886,1003,3.2355
1.3931,1003,3.2355
1.3976,954,3.0774
1.4021,708,2.2839
1.4067,977,3.1516
1.4112,1004,3.2387
1.4158,1002,3.2323
1.4203,917,2.9581
1.4248,819,2.6419
1.4294,1002,3.2323
1.4339,975,3.1452
1.4384,693,2.2355
1.4430,554,1.7871
1.4475,1002,3.2323
1.4521,1005,3.2419
1.4567,991,3.1968
1.4612,744,2.4000
1.4658,832,2.6839
1.4703,1005,3.2419
1.4749,1002,3.2323
1.4794,852,2.7484
1.4840,688,2.2194
1.4886,1003,3.2355
1.4931,1002,3.2323
1.4977,956,3.0839
1.5022,682,2.2000
1.5068,961,3.1000
1.5114,1005,3.2419
1.5159,998,3.2194
1.5207,764,2.4645
1.5253,780,2.5161
1.5299,1005,3.2419
1.5345,1003,3.2355
1.5390,869,2.8032
1.5437,684,2.2065
1.5483,1005,3.2419
1.5528,1002,3.2323
1.5574,967,3.1194
1.5619,707,2.2806
1.5665,944,3.0452
1.5711,1004,3.2387
1.5758,999,3.2226
1.5805,787,2.5387
1.5851,764,2.4645
1.5897,1005,3.2419
1.5942,1001,3.2290
1.5988,892,2.8774
1.6035,676,2.1806
1.6081,1004,3.2387
1.6178,947,3.0548
1.6223,693,2.2355
1.6269,990,3.1935
1.6315,1004,3.2387
1.6362,996,3.2129
1.6407,766,2.4710
1.6453,780,2.5161
1.6499,1005,3.2419
1.6544,1000,3.2258
1.6595,853,2.7516
1.6640,697,2.2484
1.6686,1004,3.2387
1.6733,1004,3.2387
1.6779,955,3.0806
1.6825,711,2.2935
1.6871,1002,3.2323
1.6917,1003,3.2355
1.6962,998,3.2194
1.7006,791,2.5516
1.7052,790,2.5484
1.7097,1003,3.2355
1.7142,1003,3.2355
1.7186,906,2.9226
1.7231,689,2.2226
1.7275,1003,3.2355
1.7319,1003,3.2355
1.7364,994,3.2065
1.7408,766,2.4710
1.7452,768,2.4774
1.7496,1005,3.2419
1.7540,1001,3.2290
1.7585,889,2.8677
1.7629,665,2.1452
1.7674,1003,3.2355
1.7718,1004,3.2387
1.7764,992,3.2000
1.7809,743,2.3968
1.7853,786,2.5355
1.7898,1006,3.2452
1.7943,1003,3.2355
1.7988,885,2.8548
1.8034,678,2.1871
1.8079,1004,3.2387
1.8123,1005,3.2419
1.8168,986,3.1806
1.8212,739,2.3839
1.8256,831,2.6806
1.8301,1004,3.2387
1.8345,1002,3.2323
1.8390,860,2.7742
1.8435,668,2.1548
1.8479,1004,3.2387
1.8524,1003,3.2355
1.8569,978,3.1548
1.8614,727,2.3452
1.8658,853,2.7516
1.8703,1005,3.2419
1.8746,1002,3.2323
1.8791,856,2.7613
1.8835,677,2.1839
1.8878,1006,3.2452
1.8921,1004,3.2387
1.8965,993,3.2032
1.9009,758,2.4452
1.9053,795,2.5645
1.9096,1006,3.2452
1.9140,1004,3.2387
1.9184,910,2.9355
1.9228,688,2.2194
1.9272,1003,3.2355
1.9316,1004,3.2387
1.9360,996,3.2129
1.9404,775,2.5000
1.9447,740,2.3871
1.9491,1005,3.2419
1.9536,1003,3.2355
1.9580,928,2.9935
1.9624,684,2.2065
1.9668,991,3.1968
1.9712,1004,3.2387
1.9756,1000,3.2258
1.9801,788,2.5419
1.9844,707,2.2806
1.9887,1002,3.2323
1.9931,1004,3.2387
1.9979,909,2.9323
2.0024,664,2.1419
2.0068,988,3.1871
2.0111,1005,3.2419
2.0155,999,3.2226
2.0198,811,2.6161
2.0242,715,2.3065
2.0287,1004,3.2387
2.0331,1004,3.2387
2.0374,953,3.0742
2.0419,704,2.2710
2.0462,918,2.9613
2.0506,1006,3.2452
2.0549,1002,3.2323
2.0593,834,2.6903
2.0637,676,2.1806
2.0681,1004,3.2387
2.0725,1004,3.2387
2.0769,963,3.1065
2.0813,706,2.2774
2.0857,836,2.6968
2.0900,1006,3.2452
2.0944,1003,3.2355
2.0987,867,2.7968
2.1033,669,2.1581
2.1077,1003,3.2355
2.1121,1003,3.2355
2.1164,996,3.2129
2.1209,750,2.4194
2.1253,828,2.6710
2.1296,1004,3.2387
2.1338,1005,3.2419
2.1380,990,3.1935
2.1422,771,2.4871
2.1465,905,2.9194
2.1507,1005,3.2419
2.1549,941,3.0355
2.1591,672,2.1677
2.1633,576,1.8581
2.1676,1005,3.2419
2.1719,1004,3.2387
2.1761,986,3.1806
2.1803,744,2.4000
2.1846,708,2.2839
2.1889,1004,3.2387
2.1931,1002,3.2323
2.1974,928,2.9935
2.2017,683,2.2032
2.2062,1002,3.2323
2.2138,1003,3.2355
2.2181,901,2.9065
2.2224,674,2.1742
2.2267,984,3.1742
2.2310,1004,3.2387
2.2353,1000,3.2258
2.2395,815,2.6290
2.2438,688,2.2194
2.2481,1003,3.2355
2.2523,1004,3.2387
2.2566,975,3.1452
2.2609,725,2.3387
2.2652,779,2.5129
2.2694,1004,3.2387
2.2737,1001,3.2290
2.2780,909,2.9323
2.2822,672,2.1677
2.2865,963,3.1065
2.2908,1006,3.2452
2.2950,1000,3.2258
2.2993,822,2.6516
2.3036,668,2.1548
2.3080,1003,3.2355
2.3124,1002,3.2323
2.3167,961,3.1000
2.3209,712,2.2968
2.3252,776,2.5032
2.3295,1004,3.2387
2.3338,1003,3.2355
2.3380,892,2.8774
2.3423,666,2.1484
2.3465,960,3.0968
2.3508,1004,3.2387
2.3550,1002,3.2323
2.3592,826,2.6645
2.3634,667,2.1516
2.3676,1004,3.2387
2.3718,1005,3.2419
2.3760,994,3.2065
2.3802,771,2.4871
2.3845,728,2.3484
2.3887,1005,3.2419
2.3929,1004,3.2387
2.3971,960,3.0968
2.4014,713,2.3000
2.4057,865,2.7903
2.4100,1005,3.2419
2.4142,1003,3.2355
2.4184,888,2.8645
2.4226,675,2.1774
2.4268,997,3.2161
2.4311,1002,3.2323
2.4353,998,3.2194
2.4395,799,2.5774
2.4437,673,2.1710
2.4479,1004,3.2387
2.4522,1002,3.2323
2.4564,970,3.1290
2.4606,719,2.3194
2.4648,742,2.3935
2.4690,1007,3.2484
2.4733,1002,3.2323
2.4775,916,2.9548
2.4818,679,2.1903
2.4860,897,2.8935
2.4902,1004,3.2387
2.4945,1000,3.2258
2.4987,852,2.7484
2.5029,660,2.1290
2.5071,1002,3.2323
2.5133,1002,3.2323
2.5176,915,2.9516
2.5218,677,2.1839
2.5261,911,2.9387
2.5303,1007,3.2484
2.5346,1001,3.2290
2.5387,847,2.7323
2.5430,661,2.1323
2.5472,1001,3.2290
2.5514,1005,3.2419
2.5556,994,3.2065
2.5598,777,2.5065
2.5640,685,2.2097
2.5682,1003,3.2355
2.5725,1003,3.2355
2.5768,959,3.0935
2.5811,711,2.2935
2.5854,831,2.6806
2.5897,1004,3.2387
2.5939,1003,3.2355
2.5982,887,2.8613
2.6025,674,2.1742
2.6068,1001,3.2290
2.6111,1005,3.2419
2.6153,1001,3.2290
2.6196,820,2.6452
2.6239,711,2.2935
2.6281,1003,3.2355
2.6325,1004,3.2387
2.6367,980,3.1613
2.6410,738,2.3806
2.6452,812,2.6194
2.6494,1005,3.2419
2.6536,1004,3.2387
2.6578,922,2.9742
2.6621,690,2.2258
2.6663,972,3.1355
2.6705,1005,3.2419
2.6747,1002,3.2323
2.6790,864,2.7871
2.6833,689,2.2226
2.6875,1005,3.2419
2.6918,1004,3.2387
2.6960,993,3.2032
2.7002,760,2.4516
2.7045,732,2.3613
2.7087,1005,3.2419
2.7129,1001,3.2290
2.7172,951,3.0677
2.7215,706,2.2774
2.7257,889,2.8677
2.7299,1003,3.2355
2.7342,1004,3.2387
2.7384,888,2.8645
2.7426,687,2.2161
2.7468,1004,3.2387
2.7510,1005,3.2419
2.7552,1002,3.2323
2.7595,820,2.6452
2.7637,693,2.2355
2.7679,1005,3.2419
2.7721,1002,3.2323
2.7763,980,3.1613
2.7806,738,2.3806
2.7848,779,2.5129
2.7890,1004,3.2387
2.7933,1003,3.2355
2.7976,978,3.1548
2.8018,762,2.4581
2.8061,989,3.1903
2.8103,1003,3.2355
2.8145,1001,3.2290
2.8188,848,2.7355
2.8230,670,2.1613
2.8272,1004,3.2387
2.8315,1005,3.2419
2.8358,984,3.1742
2.8400,737,2.3774
2.8442,700,2.2581
2.8484,1004,3.2387
2.8526,1004,3.2387
2.8569,948,3.0581
2.8611,704,2.2710
2.8653,844,2.7226
2.8695,1004,3.2387
2.8738,1003,3.2355
2.8780,902,2.9097
2.8823,680,2.1935
2.8865,997,3.2161
2.8907,1003,3.2355
2.8949,1000,3.2258
2.8992,811,2.6161
2.9035,665,2.1452
2.9077,1003,3.2355
2.9120,1002,3.2323
2.9162,976,3.1484
2.9206,722,2.3290
2.9250,793,2.5581
2.9293,1006,3.2452
2.9336,1001,3.2290
2.9379,883,2.8484
2.9422,661,2.1323
2.9465,999,3.2226
2.9508,1004,3.2387
2.9553,996,3.2129
2.9597,782,2.5226
2.9641,716,2.3097
2.9684,1005,3.2419
2.9726,1004,3.2387
2.9769,942,3.0387
2.9811,697,2.2484
2.9854,860,2.7742
2.9896,1004,3.2387
2.9938,1002,3.2323
2.9980,896,2.8903
3.0023,672,2.1677
3.0065,1000,3.2258
3.0107,1004,3.2387
3.0149,1002,3.2323
3.0191,825,2.6613
3.0234,689,2.2226
3.0277,1002,3.2323
3.0320,1002,3.2323
3.0363,985,3.1774
3.0405,745,2.4032
3.0447,783,2.5258
3.0489,1006,3.2452
3.0531,1001,3.2290
3.0573,938,3.0258
3.0616,703,2.2677
3.0658,929,2.9968
3.0700,1006,3.2452
3.0743,1003,3.2355
3.0785,878,2.8323
3.0827,682,2.2000
3.0869,1000,3.2258
3.0911,1005,3.2419
3.0953,998,3.2194
3.0995,811,2.6161
3.1038,718,2.3161
3.1081,1002,3.2323
3.1135,1002,3.2323
3.1178,908,2.9290
3.1220,687,2.2161
3.1263,989,3.1903
3.1305,1005,3.2419
3.1347,999,3.2226
3.1389,822,2.6516
3.1432,673,2.1710
3.1474,1003,3.2355
3.1516,1004,3.2387
3.1559,985,3.1774
3.1601,747,2.4097
3.1643,730,2.3548
3.1686,1006,3.2452
3.1728,1000,3.2258
3.1770,926,2.9871
3.1812,686,2.2129
3.1855,865,2.7903
3.1897,1004,3.2387
3.1940,1002,3.2323
3.1984,843,2.7194
3.2026,656,2.1161
3.2069,1003,3.2355
3.2111,1005,3.2419
3.2155,994,3.2065
3.2198,761,2.4548
3.2241,724,2.3355
3.2284,1004,3.2387
3.2327,1004,3.2387
3.2371,936,3.0194
3.2414,696,2.2452
3.2458,950,3.0645
3.2501,1004,3.2387
3.2545,1002,3.2323
3.2589,844,2.7226
3.2634,701,2.2613
3.2678,1004,3.2387
3.2724,1004,3.2387
3.2770,950,3.0645
3.2815,702,2.2645
3.2858,954,3.0774
3.2902,1006,3.2452
3.2946,1001,3.2290
3.2990,824,2.6581
3.3035,702,2.2645
3.3079,1005,3.2419
3.3123,1005,3.2419
3.3167,962,3.1032
3.3211,712,2.2968
3.3254,890,2.8710
3.3297,1006,3.2452
3.3341,1001,3.2290
3.3384,858,2.7677
3.3428,676,2.1806
3.3472,1004,3.2387
3.3516,1002,3.2323
3.3560,985,3.1774
3.3603,734,2.3677
3.3647,812,2.6194
3.3691,1003,3.2355
3.3735,1004,3.2387
3.3779,904,2.9161
3.3823,693,2.2355
3.3867,1003,3.2355
3.3911,1004,3.2387
3.3955,998,3.2194
3.4000,773,2.4935
3.4045,787,2.5387
3.4089,1004,3.2387
3.4144,1000,3.2258
3.4188,829,2.6742
3.4233,687,2.2161
3.4278,1005,3.2419
3.4323,1005,3.2419
3.4366,940,3.0323
3.4410,682,2.2000
3.4455,906,2.9226
3.4498,1005,3.2419
3.4542,1002,3.2323
3.4586,932,3.0065
3.4630,772,2.4903
3.4673,1004,3.2387
3.4717,1002,3.2323
3.4760,806,2.6000
3.4804,575,1.8548
3.4847,752,2.4258
3.4891,1003,3.2355
3.4935,1003,3.2355
3.4978,882,2.8452
3.5022,674,2.1742
3.5065,1000,3.2258
3.5108,1002,3.2323
3.5152,996,3.2129
3.5195,779,2.5129
3.5239,723,2.3323
3.5282,1004,3.2387
3.5326,1001,3.2290
3.5369,934,3.0129
3.5413,691,2.2290
3.5456,924,2.9806
3.5500,1004,3.2387
3.5543,1003,3.2355
3.5587,821,2.6484
3.5630,674,2.1742
3.5673,1005,3.2419
3.5716,1004,3.2387
3.5760,969,3.1258
3.5803,716,2.3097
3.5846,789,2.5452
3.5889,1003,3.2355
3.5932,1003,3.2355
3.5975,880,2.8387
3.6018,662,2.1355
3.6061,992,3.2000
3.6104,1006,3.2452
3.6147,1001,3.2290
3.6189,804,2.5935
3.6233,690,2.2258
3.6275,1004,3.2387
3.6319,1004,3.2387
3.6362,969,3.1258
3.6405,710,2.2903
3.6448,812,2.6194
3.6491,1004,3.2387
3.6534,1001,3.2290
3.6577,884,2.8516
3.6620,666,2.1484
3.6663,998,3.2194
3.6705,1002,3.2323
3.6748,999,3.2226
3.6791,783,2.5258
3.6834,688,2.2194
3.6877,1002,3.2323
3.6920,1003,3.2355
3.6963,958,3.0903
3.7006,703,2.2677
3.7049,850,2.7419
3.7093,1004,3.2387
3.7135,1004,3.2387
3.7178,897,2.8935
3.7221,672,2.1677
3.7264,1004,3.2387
3.7307,1004,3.2387
3.7350,999,3.2226
3.7393,797,2.5710
3.7437,747,2.4097
3.7481,1004,3.2387
3.7524,1003,3.2355
3.7567,965,3.1129
3.7610,726,2.3419
3.7652,909,2.9323
3.7695,1004,3.2387
3.7738,1003,3.2355
3.7780,866,2.7935
3.7823,668,2.1548
3.7866,1002,3.2323
3.7909,1005,3.2419
3.7952,994,3.2065
3.7995,769,2.4806
3.8038,728,2.3484
3.8081,1004,3.2387
3.8124,1005,3.2419
3.8169,925,2.9839
3.8213,686,2.2129
3.8256,946,3.0516
3.8299,1006,3.2452
3.8341,1002,3.2323
3.8384,841,2.7129
3.8427,683,2.2032
3.8470,1004,3.2387
3.8513,1002,3.2323
3.8556,990,3.1935
3.8599,748,2.4129
3.8643,788,2.5419
3.8686,1003,3.2355
3.8729,1001,3.2290
3.8772,903,2.9129
3.8815,676,2.1806
3.8858,983,3.1710
3.8900,1006,3.2452
3.8943,1001,3.2290
3.8986,807,2.6032
3.9031,670,2.1613
3.9074,1003,3.2355
3.9117,1004,3.2387
3.9160,970,3.1290
3.9203,724,2.3355
3.9246,813,2.6226
3.9289,1003,3.2355
3.9332,1003,3.2355
3.9376,883,2.8484
3.9419,668,2.1548
3.9463,1000,3.2258
3.9505,1004,3.2387
3.9548,997,3.2161
3.9590,797,2.5710
3.9632,694,2.2387
3.9675,1003,3.2355
3.9718,1004,3.2387
3.9760,973,3.1387
3.9802,732,2.3613
3.9845,821,2.6484
3.9888,1005,3.2419
3.9930,1003,3.2355
3.9972,898,2.8968
4.0016,672,2.1677
4.0059,997,3.2161
4.0140,1000,3.2258
4.0184,819,2.6419
4.0226,671,2.1645
4.0269,1005,3.2419
4.0312,1004,3.2387
4.0356,975,3.1452
4.0400,726,2.3419
4.0443,783,2.5258
4.0486,1006,3.2452
4.0529,1003,3.2355
4.0572,893,2.8806
4.0615,667,2.1516
4.0657,977,3.1516
4.0700,1003,3.2355
4.0742,998,3.2194
4.0785,816,2.6323
4.0827,671,2.1645
4.0869,1002,3.2323
4.0912,1003,3.2355
4.0954,977,3.1516
4.0996,731,2.3581
4.1038,750,2.4194
4.1081,1006,3.2452
4.1123,1003,3.2355
4.1165,994,3.2065
4.1207,784,2.5290
4.1249,827,2.6677
4.1291,1002,3.2323
4.1333,872,2.8129
4.1375,605,1.9516
4.1417,528,1.7032
4.1459,988,3.1871
4.1502,1005,3.2419
4.1544,999,3.2226
4.1586,799,2.5774
4.1628,676,2.1806
4.1670,1006,3.2452
4.1713,1005,3.2419
4.1756,968,3.1226
4.1799,719,2.3194
4.1842,771,2.4871
4.1885,1005,3.2419
4.1928,1002,3.2323
4.1972,882,2.8452
4.2015,658,2.1226
4.2058,997,3.2161
4.2101,1003,3.2355
4.2145,998,3.2194
4.2189,781,2.5194
4.2233,708,2.2839
4.2276,1005,3.2419
4.2319,1001,3.2290
4.2362,949,3.0613
4.2404,702,2.2645
4.2447,857,2.7645
4.2490,1002,3.2323
4.2533,1000,3.2258
4.2576,868,2.8000
4.2619,656,2.1161
4.2662,1003,3.2355
4.2705,1001,3.2290
4.2748,995,3.2097
4.2792,761,2.4548
4.2835,726,2.3419
4.2878,1006,3.2452
4.2921,1002,3.2323
4.2964,928,2.9935
4.3007,684,2.2065
4.3050,902,2.9097
4.3093,1005,3.2419
4.3148,992,3.2000
4.3192,746,2.4065
4.3235,718,2.3161
4.3278,1004,3.2387
4.3322,1005,3.2419
4.3365,950,3.0645
4.3408,698,2.2516
4.3452,941,3.0355
4.3494,1004,3.2387
4.3538,1002,3.2323
4.3581,860,2.7742
4.3624,696,2.2452
4.3667,1002,3.2323
4.3710,1001,3.2290
4.3753,997,3.2161
4.3796,764,2.4645
4.3839,786,2.5355
4.3881,1004,3.2387
4.3923,1005,3.2419
4.3966,952,3.0710
4.4008,723,2.3323
4.4050,945,3.0484
4.4093,1005,3.2419
4.4135,1003,3.2355
4.4177,886,2.8581
4.4219,692,2.2323
4.4261,1003,3.2355
4.4303,1005,3.2419
4.4346,998,3.2194
4.4388,799,2.5774
4.4431,712,2.2968
4.4473,1004,3.2387
4.4515,1004,3.2387
4.4558,977,3.1516
4.4600,736,2.3742
4.4642,824,2.6581
4.4684,1002,3.2323
4.4726,1001,3.2290
4.4769,920,2.9677
4.4811,693,2.2355
4.4853,982,3.1677
4.4895,1003,3.2355
4.4938,1000,3.2258
4.4980,853,2.7516
4.5022,692,2.2323
4.5065,1004,3.2387
4.5107,1005,3.2419
4.5150,994,3.2065
4.5193,774,2.4968
4.5237,784,2.5290
4.5280,1004,3.2387
4.5323,1001,3.2290
4.5367,931,3.0032
4.5409,699,2.2548
4.5451,956,3.0839
4.5493,1004,3.2387
4.5536,1000,3.2258
4.5578,855,2.7581
4.5620,666,2.1484
4.5662,1004,3.2387
4.5704,1004,3.2387
4.5746,999,3.2226
4.5789,800,2.5806
4.5831,726,2.3419
4.5873,1004,3.2387
4.5914,1004,3.2387
4.5957,972,3.1355
4.5999,724,2.3355
4.6042,826,2.6645
4.6085,1005,3.2419
4.6128,1003,3.2355
4.6171,900,2.9032
4.6214,677,2.1839
4.6256,1001,3.2290
4.6298,1005,3.2419
4.6341,1000,3.2258
4.6383,832,2.6839
4.6426,704,2.2710
4.6468,1002,3.2323
4.6510,1005,3.2419
4.6552,992,3.2000
4.6595,771,2.4871
4.6637,794,2.5613
4.6679,1005,3.2419
4.6721,1003,3.2355
4.6764,948,3.0581
4.6807,717,2.3129
4.6850,965,3.1129
4.6893,1005,3.2419
4.6935,1002,3.2323
4.6977,862,2.7806
4.7020,678,2.1871
4.7062,1003,3.2355
4.7104,1003,3.2355
4.7146,995,3.2097
4.7188,768,2.4774
4.7230,705,2.2742
4.7272,1005,3.2419
4.7314,1004,3.2387
4.7356,963,3.1065
4.7398,716,2.3097
4.7440,810,2.6129
4.7483,1006,3.2452
4.7525,1002,3.2323
4.7567,930,3.0000
4.7609,707,2.2806
4.7652,991,3.1968
4.7694,1002,3.2323
4.7736,1003,3.2355
4.7778,924,2.9806
4.7820,716,2.3097
4.7863,1001,3.2290
4.7906,1003,3.2355
4.7948,898,2.8968
4.7991,638,2.0581
4.8034,694,2.2387
4.8076,1004,3.2387
4.8118,1002,3.2323
4.8160,923,2.9774
4.8203,679,2.1903
4.8245,871,2.8097
4.8287,1002,3.2323
4.8329,1003,3.2355
4.8371,878,2.8323
4.8413,664,2.1419
4.8455,1001,3.2290
4.8498,1006,3.2452
4.8540,1000,3.2258
4.8582,820,2.6452
4.8624,690,2.2258
4.8667,1004,3.2387
4.8709,1003,3.2355
4.8751,985,3.1774
4.8793,738,2.3806
4.8835,767,2.4742
4.8877,1005,3.2419
4.8919,1003,3.2355
4.8961,936,3.0194
4.9004,698,2.2516
4.9046,922,2.9742
4.9089,1005,3.2419
4.9139,1001,3.2290
4.9182,826,2.6645
4.9225,717,2.3129
4.9267,1006,3.2452
4.9309,1001,3.2290
4.9351,990,3.1935
4.9393,768,2.4774
4.9435,781,2.5194
4.9481,1006,3.2452
4.9523,1002,3.2323
4.9566,896,2.8903
4.9609,662,2.1355
4.9653,997,3.2161
4.9697,1005,3.2419
4.9740,1000,3.2258
4.9784,774,2.4968
4.9828,699,2.2548
4.9872,1004,3.2387
4.9915,1001,3.2290
4.9958,960,3.0968
5.0002,712,2.2968
5.0047,947,3.0548
5.0093,1003,3.2355
5.0221,695,2.2419
5.0267,1004,3.2387
5.0371,896,2.8903
5.0416,694,2.2387
5.0461,1005,3.2419
5.0505,1005,3.2419
5.0549,991,3.1968
5.0592,752,2.4258
5.0636,794,2.5613
5.0679,1003,3.2355
5.0723,1004,3.2387
5.0766,907,2.9258
5.0810,681,2.1968
5.0854,1002,3.2323
5.0898,1005,3.2419
5.0941,1000,3.2258
5.0984,782,2.5226
5.1028,728,2.3484
5.1072,1004,3.2387
5.1116,1002,3.2323
5.1160,936,3.0194
5.1203,687,2.2161
5.1246,931,3.0032
5.1290,1005,3.2419
5.1335,1001,3.2290
5.1378,819,2.6419
5.1421,686,2.2129
5.1465,1003,3.2355
5.1510,1004,3.2387
5.1553,961,3.1000
5.1596,710,2.2903
5.1640,846,2.7290
5.1683,1005,3.2419
5.1727,1001,3.2290
5.1771,856,2.7613
5.1815,668,2.1548
5.1858,1001,3.2290
5.1902,1005,3.2419
5.1945,989,3.1903
5.1989,726,2.3419
5.2033,750,2.4194
5.2078,1006,3.2452
5.2173,833,2.6871
5.2218,661,2.1323
5.2262,1004,3.2387
5.2305,1003,3.2355
5.2349,971,3.1323
5.2392,711,2.2935
5.2436,781,2.5194
5.2479,1004,3.2387
5.2523,1002,3.2323
5.2568,859,2.7710
5.2611,652,2.1032
5.2655,1002,3.2323
5.2699,1004,3.2387
5.2743,990,3.1935
5.2788,738,2.3806
5.2833,770,2.4839
5.2878,1003,3.2355
5.2922,1001,3.2290
5.2967,876,2.8258
5.3011,661,2.1323
5.3060,1006,3.2452
5.3104,1002,3.2323
5.3148,971,3.1323
5.3193,715,2.3065
5.3238,828,2.6710
5.3284,1004,3.2387
5.3330,1000,3.2258
5.3375,818,2.6387
5.3419,660,2.1290
5.3463,1001,3.2290
5.3507,1004,3.2387
5.3552,935,3.0161
5.3598,673,2.1710
5.3643,899,2.9000
5.3689,1005,3.2419
5.3735,999,3.2226
5.3779,796,2.5677
5.3823,700,2.2581
5.3867,1004,3.2387
5.3910,1003,3.2355
5.3954,969,3.1258
5.3999,727,2.3452
5.4044,942,3.0387
5.4088,1005,3.2419
5.4133,1003,3.2355
5.4177,883,2.8484
5.4221,712,2.2968
5.4266,1004,3.2387
5.4310,1001,3.2290
5.4354,821,2.6484
5.4398,586,1.8903
5.4442,855,2.7581
5.4486,1004,3.2387
5.4530,1001,3.2290
5.4575,789,2.5452
5.4620,667,2.1516
5.4664,1003,3.2355
5.4708,1004,3.2387
5.4752,943,3.0419
5.4796,690,2.2258
5.4841,885,2.8548
5.4885,1004,3.2387
5.4929,1001,3.2290
5.4973,817,2.6355
5.5018,673,2.1710
5.5062,1004,3.2387
5.5106,1003,3.2355
5.5150,945,3.0484
5.5194,687,2.2161
5.5239,864,2.7871
5.5283,1006,3.2452
5.5326,1002,3.2323
5.5369,840,2.7097
5.5413,639,2.0613
5.5457,1003,3.2355
5.5502,1004,3.2387
5.5547,956,3.0839
5.5592,692,2.2323
5.5636,820,2.6452
5.5681,1006,3.2452
5.5724,1001,3.2290
5.5768,841,2.7129
5.5812,654,2.1097
5.5857,1003,3.2355
5.5901,1003,3.2355
5.5945,974,3.1419
5.5988,720,2.3226
5.6033,781,2.5194
5.6077,1005,3.2419
5.6121,1002,3.2323
5.6165,850,2.7419
5.6208,626,2.0194
5.6252,1001,3.2290
5.6296,1004,3.2387
5.6340,992,3.2000
5.6384,753,2.4290
5.6428,744,2.4000
5.6473,1004,3.2387
5.6518,1001,3.2290
5.6562,874,2.8194
5.6606,653,2.1065
5.6654,1002,3.2323
5.6699,1003,3.2355
5.6744,960,3.0968
5.6789,688,2.2194
5.6835,797,2.5710
5.6880,1005,3.2419
5.6927,1002,3.2323
5.6973,790,2.5484
5.7020,673,2.1710
5.7066,1003,3.2355
5.7112,1003,3.2355
5.7158,873,2.8161
5.7205,644,2.0774
5.7255,1003,3.2355
5.7300,1004,3.2387
5.7346,946,3.0516
5.7393,680,2.1935
5.7438,866,2.7935
5.7484,1005,3.2419
5.7529,999,3.2226
5.7576,769,2.4806
5.7621,689,2.2226
5.7667,1002,3.2323
5.7714,1003,3.2355
5.7760,866,2.7935
5.7805,644,2.0774
5.7850,999,3.2226
5.7895,1004,3.2387
5.7941,963,3.1065
5.7986,694,2.2387
5.8033,780,2.5161
5.8092,1003,3.2355
5.8182,703,2.2677
5.8228,729,2.3516
5.8274,1005,3.2419
5.8320,1001,3.2290
5.8365,816,2.6323
5.8411,631,2.0355
5.8457,1003,3.2355
5.8502,1003,3.2355
5.8547,955,3.0806
5.8592,695,2.2419
5.8638,882,2.8452
5.8683,1005,3.2419
5.8729,1000,3.2258
5.8774,790,2.5484
5.8819,684,2.2065
5.8865,1004,3.2387
5.8910,1004,3.2387
5.8957,876,2.8258
5.9003,649,2.0935
5.9048,1001,3.2290
5.9095,1005,3.2419
5.9140,975,3.1452
5.9186,710,2.2903
5.9232,797,2.5710
5.9278,1005,3.2419
5.9324,1001,3.2290
5.9369,794,2.5613
5.9415,653,2.1065
5.9461,1003,3.2355
5.9506,1002,3.2323
5.9552,900,2.9032
5.9598,654,2.1097
5.9643,966,3.1161
5.9689,1004,3.2387
5.9735,993,3.2032
5.9781,737,2.3774
5.9826,747,2.4097
5.9872,1004,3.2387
5.9918,1002,3.2323
5.9963,852,2.7484
6.0008,652,2.1032
6.0055,1003,3.2355
6.0100,1003,3.2355
6.0146,931,3.0032
6.0193,665,2.1452
6.0238,891,2.8742
6.0283,1004,3.2387
6.0329,1001,3.2290
6.0375,816,2.6323
6.0421,731,2.3581
6.0467,1003,3.2355
6.0512,1004,3.2387
6.0559,894,2.8839
6.0605,667,2.1516
6.0651,1001,3.2290
6.0697,1004,3.2387
6.0743,938,3.0258
6.0789,667,2.1516
6.0835,840,2.7097
6.0880,1003,3.2355
6.0926,999,3.2226
6.0972,786,2.5355
6.1017,684,2.2065
6.1063,1005,3.2419
6.1110,1003,3.2355
6.1190,685,2.2097
6.1236,873,2.8161
6.1282,1005,3.2419
6.1327,999,3.2226
6.1373,772,2.4903
6.1420,691,2.2290
6.1465,1004,3.2387
6.1511,1003,3.2355
6.1557,869,2.8032
6.1602,643,2.0742
6.1647,1001,3.2290
6.1693,1003,3.2355
6.1740,965,3.1129
6.1785,694,2.2387
6.1830,797,2.5710
6.1876,1004,3.2387
6.1921,1001,3.2290
6.1967,811,2.6161
6.2014,659,2.1258
6.2059,1005,3.2419
6.2105,1004,3.2387
6.2151,888,2.8645
6.2196,640,2.0645
6.2241,950,3.0645
6.2287,1005,3.2419
6.2333,983,3.1710
6.2379,717,2.3129
6.2424,733,2.3645
6.2470,1005,3.2419
6.2516,1002,3.2323
6.2561,824,2.6581
6.2607,625,2.0161
6.2652,1003,3.2355
6.2698,1003,3.2355
6.2743,953,3.0742
6.2787,696,2.2452
6.2831,820,2.6452
6.2875,1003,3.2355
6.2919,1001,3.2290
6.2962,830,2.6774
6.3006,646,2.0839
6.3049,1003,3.2355
6.3093,1004,3.2387
6.3137,981,3.1645
6.3181,728,2.3484
6.3224,740,2.3871
6.3268,1002,3.2323
6.3312,1002,3.2323
6.3355,876,2.8258
6.3399,654,2.1097
6.3442,959,3.0935
6.3486,1004,3.2387
6.3529,989,3.1903
6.3573,738,2.3806
6.3617,663,2.1387
6.3661,1003,3.2355
6.3706,1002,3.2323
6.3750,887,2.8613
6.3794,643,2.0742
6.3837,888,2.8645
6.3882,1005,3.2419
6.3926,997,3.2161
6.3970,765,2.4677
6.4014,664,2.1419
6.4058,1003,3.2355
6.4103,1003,3.2355
6.4148,908,2.9290
6.4192,660,2.1290
6.4236,897,2.8935
6.4280,1004,3.2387
6.4324,1002,3.2323
6.4368,798,2.5742
6.4412,666,2.1484
6.4456,1004,3.2387
6.4500,1003,3.2355
6.4545,930,3.0000
6.4590,672,2.1677
6.4635,872,2.8129
6.4679,1006,3.2452
6.4722,997,3.2161
6.4766,791,2.5516
6.4810,649,2.0935
6.4853,1002,3.2323
6.4897,1004,3.2387
6.4940,957,3.0871
6.4984,688,2.2194
6.5028,780,2.5161
6.5071,1003,3.2355
6.5115,1001,3.2290
6.5158,856,2.7613
6.5202,640,2.0645
6.5246,1000,3.2258
6.5289,1002,3.2323
6.5333,989,3.1903
6.5377,742,2.3935
6.5420,722,2.3290
6.5464,1004,3.2387
6.5507,1004,3.2387
6.5550,913,2.9452
6.5594,676,2.1806
6.5638,941,3.0355
6.5681,1006,3.2452
6.5725,999,3.2226
6.5768,782,2.5226
6.5812,658,2.1226
6.5856,1004,3.2387
6.5900,1003,3.2355
6.5944,930,3.0000
6.5987,674,2.1742
6.6031,830,2.6774
6.6075,1005,3.2419
6.6118,1001,3.2290
6.6162,825,2.6613
6.6206,653,2.1065
6.6249,1002,3.2323
6.6293,1002,3.2323
6.6336,977,3.1516
6.6380,723,2.3323
6.6424,759,2.4484
6.6467,1005,3.2419
6.6510,1003,3.2355
6.6554,876,2.8258
6.6597,658,2.1226
6.6641,998,3.2194
6.6685,1004,3.2387
6.6729,999,3.2226
6.6773,798,2.5742
6.6817,740,2.3871
6.6862,1004,3.2387
6.6906,1003,3.2355
6.6950,960,3.0968
6.6993,704,2.2710
6.7037,910,2.9355
6.7085,1005,3.2419
6.7367,786,2.5355
6.7453,1004,3.2387
6.7498,1001,3.2290
6.7543,940,3.0323
6.7587,691,2.2290
6.7630,857,2.7645
6.7674,1005,3.2419
6.7719,1000,3.2258
6.7763,823,2.6548
6.7807,657,2.1194
6.7869,1005,3.2419
6.7914,1003,3.2355
6.7959,841,2.7129
6.8004,653,2.1065
6.8048,1004,3.2387
6.8093,1003,3.2355
6.8137,968,3.1226
6.8182,707,2.2806
6.8226,795,2.5645
6.8271,1007,3.2484
6.8315,1001,3.2290
6.8359,831,2.6806
6.8403,642,2.0710
6.8447,1004,3.2387
6.8492,1004,3.2387
6.8537,967,3.1194
6.8581,704,2.2710
6.8625,793,2.5581
6.8669,1005,3.2419
6.8713,1002,3.2323
6.8757,857,2.7645
6.8801,660,2.1290
6.8845,1003,3.2355
6.8890,1004,3.2387
6.8935,980,3.1613
6.8978,725,2.3387
6.9022,770,2.4839
6.9067,1004,3.2387
6.9111,1002,3.2323
6.9156,864,2.7871
6.9201,656,2.1161
6.9245,1003,3.2355
6.9290,1004,3.2387
6.9335,978,3.1548
6.9381,717,2.3129
6.9426,809,2.6097
6.9470,1003,3.2355
6.9514,1001,3.2290
6.9558,851,2.7452
6.9602,662,2.1355
6.9646,1004,3.2387
6.9690,1005,3.2419
6.9735,987,3.1839
6.9779,742,2.3935
6.9823,796,2.5677
6.9867,1004,3.2387
6.9911,1002,3.2323
6.9955,879,2.8355
6.9999,670,2.1613
7.0043,1003,3.2355
7.0102,1004,3.2387
7.0190,673,2.1710
7.0235,945,3.0484
7.0279,1005,3.2419
7.0324,998,3.2194
7.0368,761,2.4548
7.0412,681,2.1968
7.0458,1006,3.2452
7.0503,1004,3.2387
7.0548,903,2.9129
7.0592,664,2.1419
7.0636,964,3.1097
7.0681,1004,3.2387
7.0725,996,3.2129
7.0769,762,2.4581
7.0813,695,2.2419
7.0857,1004,3.2387
7.0901,1004,3.2387
7.0946,914,2.9484
7.0990,672,2.1677
7.1035,964,3.1097
7.1080,1005,3.2419
7.1124,999,3.2226
7.1168,777,2.5065
7.1213,697,2.2484
7.1257,1005,3.2419
7.1301,1004,3.2387
7.1345,914,2.9484
7.1390,672,2.1677
7.1435,951,3.0677
7.1479,1004,3.2387
7.1523,997,3.2161
7.1567,770,2.4839
7.1611,683,2.2032
7.1655,1004,3.2387
7.1698,1004,3.2387
7.1742,924,2.9806
7.1787,675,2.1774
7.1831,895,2.8871
7.1875,1005,3.2419
7.1919,1001,3.2290
7.1963,797,2.5710
7.2010,691,2.2290
7.2055,1005,3.2419
7.2098,1004,3.2387
7.2142,933,3.0097
7.2185,684,2.2065
7.2229,870,2.8065
7.2272,1004,3.2387
7.2316,1001,3.2290
7.2359,805,2.5968
7.2402,638,2.0581
7.2446,1002,3.2323
7.2491,1003,3.2355
7.2535,936,3.0194
7.2580,671,2.1645
7.2624,793,2.5581
7.2668,1003,3.2355
7.2712,999,3.2226
7.2757,814,2.6258
7.2801,643,2.0742
7.2846,1003,3.2355
7.2890,1002,3.2323
7.2935,945,3.0484
7.2979,687,2.2161
7.3023,788,2.5419
7.3068,1004,3.2387
7.3114,1000,3.2258
7.3158,804,2.5935
7.3202,660,2.1290
7.3246,1004,3.2387
7.3291,1004,3.2387
7.3334,998,3.2194
7.3378,793,2.5581
7.3421,758,2.4452
7.3465,1002,3.2323
7.3509,944,3.0452
7.3552,668,2.1548
7.3596,546,1.7613
7.3639,996,3.2129
7.3683,1004,3.2387
7.3726,982,3.1677
7.3770,728,2.3484
7.3813,703,2.2677
7.3857,1006,3.2452
7.3901,1002,3.2323
7.3945,899,2.9000
7.3988,663,2.1387
7.4031,919,2.9645
7.4075,1005,3.2419
7.4120,998,3.2194
7.4164,766,2.4710
7.4208,663,2.1387
7.4252,1003,3.2355
7.4296,1003,3.2355
7.4340,918,2.9613
7.4384,663,2.1387
7.4427,869,2.8032
7.4471,1004,3.2387
7.4515,998,3.2194
7.4559,814,2.6258
7.4602,651,2.1000
7.4646,1004,3.2387
7.4690,1004,3.2387
7.4734,944,3.0452
7.4779,684,2.2065
7.4822,801,2.5839
7.4866,1003,3.2355
7.4910,1001,3.2290
7.4955,835,2.6935
7.4999,647,2.0871
7.5043,1002,3.2323
7.5087,1002,3.2323
7.5132,971,3.1323
7.5176,704,2.2710
7.5221,790,2.5484
7.5265,1005,3.2419
7.5309,1001,3.2290
7.5354,853,2.7516
7.5398,655,2.1129
7.5442,1004,3.2387
7.5486,1003,3.2355
7.5530,982,3.1677
7.5574,733,2.3645
7.5618,777,2.5065
7.5662,1004,3.2387
7.5706,1001,3.2290
7.5750,871,2.8097
7.5794,660,2.1290
7.5838,1003,3.2355
7.5881,1004,3.2387
7.5925,996,3.2129
7.5973,739,2.3839
7.6017,761,2.4548
7.6061,1004,3.2387
7.6105,1002,3.2323
7.6190,662,2.1355
7.6236,996,3.2129
7.6279,1003,3.2355
7.6324,989,3.1903
7.6368,737,2.3774
7.6411,704,2.2710
7.6455,1005,3.2419
7.6499,1003,3.2355
7.6543,899,2.9000
7.6587,663,2.1387
7.6632,954,3.0774
7.6676,1005,3.2419
7.6721,992,3.2000
7.6765,750,2.4194
7.6809,690,2.2258
7.6853,1005,3.2419
7.6897,1003,3.2355
7.6941,898,2.8968
7.6986,643,2.0742
7.7030,911,2.9387
7.7075,1004,3.2387
7.7120,986,3.1806
7.7165,723,2.3323
7.7210,679,2.1903
7.7255,1003,3.2355
7.7298,1003,3.2355
7.7343,864,2.7871
7.7387,632,2.0387
7.7431,931,3.0032
7.7475,1005,3.2419
7.7519,992,3.2000
7.7563,740,2.3871
7.7607,670,2.1613
7.7651,1004,3.2387
7.7695,1002,3.2323
7.7739,892,2.8774
7.7783,642,2.0710
7.7828,897,2.8935
7.7872,1006,3.2452
7.7915,999,3.2226
7.7959,778,2.5097
7.8004,660,2.1290
7.8048,1003,3.2355
7.8092,1004,3.2387
7.8137,899,2.9000
7.8183,644,2.0774
7.8227,889,2.8677
7.8272,1004,3.2387
7.8316,995,3.2097
7.8360,756,2.4387
7.8404,654,2.1097
7.8449,1004,3.2387
7.8493,1002,3.2323
7.8537,911,2.9387
7.8581,655,2.1129
7.8624,855,2.7581
7.8668,1002,3.2323
7.8711,998,3.2194
7.8755,782,2.5226
7.8798,642,2.0710
7.8842,1003,3.2355
7.8886,1003,3.2355
7.8929,948,3.0581
7.8973,686,2.2129
7.9016,766,2.4710
7.9060,1004,3.2387
7.9106,1001,3.2290
7.9190,643,2.0742
7.9236,1001,3.2290
7.9280,1003,3.2355
7.9324,966,3.1161
7.9368,697,2.2484
7.9412,707,2.2806
7.9456,1006,3.2452
7.9500,1002,3.2323
7.9543,865,2.7903
7.9586,640,2.0645
7.9630,932,3.0065
7.9673,1004,3.2387
7.9717,986,3.1806
7.9762,726,2.3419
7.9806,666,2.1484
7.9850,1004,3.2387
7.9894,1003,3.2355
7.9938,962,3.1032
7.9981,723,2.3323
8.0025,923,2.9774
8.0069,1003,3.2355
8.0113,991,3.1968
8.0156,742,2.3935
8.0200,628,2.0258
8.0243,1003,3.2355
8.0287,1004,3.2387
8.0331,918,2.9613
8.0375,653,2.1065
8.0418,773,2.4935
8.0461,1004,3.2387
8.0505,1002,3.2323
8.0549,824,2.6581
8.0592,630,2.0323
8.0635,1000,3.2258
8.0679,1003,3.2355
8.0722,973,3.1387
8.0766,708,2.2839
8.0810,699,2.2548
8.0854,1004,3.2387
8.0898,1002,3.2323
8.0943,862,2.7806
8.0987,634,2.0452
8.1032,987,3.1839
8.1077,1002,3.2323
8.1121,980,3.1613
8.1165,719,2.3194
8.1209,708,2.2839
8.1253,1004,3.2387
8.1297,1001,3.2290
8.1341,865,2.7903
8.1386,638,2.0581
8.1429,960,3.0968
8.1473,1004,3.2387
8.1517,990,3.1935
8.1562,734,2.3677
8.1607,689,2.2226
8.1651,1004,3.2387
8.1694,1003,3.2355
8.1738,887,2.8613
8.1783,633,2.0419
8.1829,951,3.0677
8.1873,1004,3.2387
8.1918,991,3.1968
8.1962,737,2.3774
8.2006,694,2.2387
8.2050,1004,3.2387
8.2093,1003,3.2355
8.2136,918,2.9613
8.2179,677,2.1839
8.2222,879,2.8355
8.2265,1005,3.2419
8.2307,1001,3.2290
8.2350,838,2.7032
8.2393,653,2.1065
8.2436,1004,3.2387
8.2479,1005,3.2419
8.2522,983,3.1710
8.2565,732,2.3613
8.2608,718,2.3161
8.2651,1004,3.2387
8.2694,1001,3.2290
8.2737,914,2.9484
8.2780,659,2.1258
8.2823,870,2.8065
8.2866,1002,3.2323
8.2908,999,3.2226
8.2951,807,2.6032
8.2994,640,2.0645
8.3037,1003,3.2355
8.3080,1005,3.2419
8.3123,977,3.1516
8.3165,728,2.3484
8.3207,705,2.2742
8.3250,1003,3.2355
8.3362,731,2.3581
8.3405,686,2.2129
8.3448,1005,3.2419
8.3490,1001,3.2290
8.3533,914,2.9484
8.3575,669,2.1581
8.3617,805,2.5968
8.3659,1006,3.2452
8.3702,1001,3.2290
8.3744,845,2.7258
8.3786,640,2.0645
8.3828,952,3.0710
8.3870,1003,3.2355
8.3913,996,3.2129
8.3955,768,2.4774
8.3997,639,2.0613
8.4039,1005,3.2419
8.4082,1004,3.2387
8.4124,949,3.0613
8.4166,689,2.2226
8.4208,696,2.2452
8.4250,1004,3.2387
8.4292,1003,3.2355
8.4334,890,2.8710
8.4377,642,2.0710
8.4419,825,2.6613
8.4462,1002,3.2323
8.4504,1000,3.2258
8.4546,828,2.6710
8.4588,628,2.0258
8.4630,980,3.1613
8.4672,1004,3.2387
8.4714,993,3.2032
8.4757,751,2.4226
8.4800,661,2.1323
8.4843,1004,3.2387
8.4886,1003,3.2355
8.4929,929,2.9968
8.4971,681,2.1968
8.5014,788,2.5419
8.5057,1005,3.2419
8.5102,1001,3.2290
8.5167,702,2.2645
8.5211,743,2.3968
8.5254,1005,3.2419
8.5297,1003,3.2355
8.5339,861,2.7774
8.5381,638,2.0581
8.5424,905,2.9194
8.5467,1005,3.2419
8.5509,997,3.2161
8.5551,767,2.4742
8.5594,624,2.0129
8.5636,1004,3.2387
8.5679,1001,3.2290
8.5721,975,3.1452
8.5763,728,2.3484
8.5805,702,2.2645
8.5847,1004,3.2387
8.5890,1000,3.2258
8.5934,896,2.8903
8.5976,659,2.1258
8.6019,860,2.7742
8.6061,1002,3.2323
8.6104,1000,3.2258
8.6146,836,2.6968
8.6188,639,2.0613
8.6230,995,3.2097
8.6272,1003,3.2355
8.6314,992,3.2000
8.6356,752,2.4258
8.6398,665,2.1452
8.6441,1003,3.2355
8.6483,1005,3.2419
8.6525,998,3.2194
8.6567,796,2.5677
8.6609,731,2.3581
8.6651,1002,3.2323
8.6694,946,3.0516
8.6736,664,2.1419
8.6778,525,1.6935
8.6820,836,2.6968
8.6862,1002,3.2323
8.6904,996,3.2129
8.6948,785,2.5323
8.6991,618,1.9935
8.7034,1004,3.2387
8.7078,1003,3.2355
8.7121,981,3.1645
8.7164,728,2.3484
8.7207,747,2.4097
8.7251,1005,3.2419
8.7294,1002,3.2323
8.7337,898,2.8968
8.7380,658,2.1226
8.7423,939,3.0290
8.7466,1002,3.2323
8.7509,999,3.2226
8.7552,790,2.5484
8.7594,656,2.1161
8.7638,1005,3.2419
8.7681,1005,3.2419
8.7724,967,3.1194
8.7767,714,2.3032
8.7810,777,2.5065
8.7853,1002,3.2323
8.7895,1003,3.2355
8.7939,888,2.8645
8.7981,659,2.1258
8.8024,965,3.1129
8.8067,1005,3.2419
8.8110,999,3.2226
8.8170,692,2.2323
8.8214,830,2.6774
8.8257,1003,3.2355
8.8300,1002,3.2323
8.8343,862,2.7806
8.8386,661,2.1323
8.8429,1000,3.2258
8.8472,1002,3.2323
8.8515,998,3.2194
8.8558,772,2.4903
8.8600,701,2.2613
8.8643,1004,3.2387
8.8686,1004,3.2387
8.8729,936,3.0194
8.8772,689,2.2226
8.8814,828,2.6710
8.8856,1004,3.2387
8.8898,1001,3.2290
8.8940,871,2.8097
8.8983,646,2.0839
8.9025,987,3.1839
8.9068,1005,3.2419
8.9110,999,3.2226
8.9152,804,2.5935
8.9194,672,2.1677
8.9236,1004,3.2387
8.9278,1006,3.2452
8.9320,985,3.1774
8.9363,743,2.3968
8.9405,745,2.4032
8.9448,1004,3.2387
8.9490,1002,3.2323
8.9532,922,2.9742
8.9575,684,2.2065
8.9617,878,2.8323
8.9659,1004,3.2387
8.9701,1002,3.2323
8.9743,841,2.7129
8.9786,645,2.0806
8.9828,1002,3.2323
8.9870,1002,3.2323
8.9912,997,3.2161
8.9955,763,2.4613
8.9998,680,2.1935
9.0042,1006,3.2452
9.0085,1001,3.2290
9.0128,922,2.9742
9.0171,663,2.1387
9.0213,812,2.6194
9.0256,1003,3.2355
9.0299,1000,3.2258
9.0342,824,2.6581
9.0385,630,2.0323
9.0427,996,3.2129
9.0470,1005,3.2419
9.0512,991,3.1968
9.0554,749,2.4161
9.0597,658,2.1226
9.0639,1004,3.2387
9.0682,1004,3.2387
9.0726,921,2.9710
9.0769,666,2.1484
9.0813,812,2.6194
9.0856,1005,3.2419
9.0898,1001,3.2290
9.0941,820,2.6452
9.0984,630,2.0323
9.1027,1000,3.2258
9.1070,1004,3.2387
9.1112,992,3.2000
9.1154,755,2.4355
9.1196,666,2.1484
9.1238,1003,3.2355
9.1280,1003,3.2355
9.1322,936,3.0194
9.1365,683,2.2032
9.1407,743,2.3968
9.1451,1006,3.2452
9.1494,1001,3.2290
9.1537,824,2.6581
9.1580,617,1.9903
9.1622,934,3.0129
9.1665,1001,3.2290
9.1707,990,3.1935
9.1750,740,2.3871
9.1793,626,2.0194
9.1836,1003,3.2355
9.1878,1003,3.2355
9.1921,917,2.9581
9.1963,662,2.1355
9.2005,724,2.3355
9.2048,1002,3.2323
9.2090,1003,3.2355
9.2132,867,2.7968
9.2174,643,2.0742
9.2216,876,2.8258
9.2259,1005,3.2419
9.2300,1000,3.2258
9.2343,816,2.6323
9.2386,639,2.0613
9.2429,1002,3.2323
9.2472,1004,3.2387
9.2516,971,3.1323
9.2560,707,2.2806
9.2604,735,2.3710
9.2648,1004,3.2387
9.2692,1000,3.2258
9.2737,851,2.7452
9.2782,637,2.0548
9.2827,1001,3.2290
9.2872,1002,3.2323
9.2915,961,3.1000
9.2959,697,2.2484
9.3003,744,2.4000
9.3047,1005,3.2419
9.3092,1004,3.2387
9.3136,963,3.1065
9.3179,753,2.4290
9.3223,998,3.2194
9.3267,1002,3.2323
9.3312,832,2.6839
9.3356,579,1.8677
9.3400,648,2.0903
9.3443,1001,3.2290
9.3488,1002,3.2323
9.3531,890,2.8710
9.3575,658,2.1226
9.3619,963,3.1065
9.3664,1002,3.2323
9.3707,998,3.2194
9.3751,768,2.4774
9.3795,683,2.2032
9.3839,1004,3.2387
9.3882,1004,3.2387
9.3926,924,2.9806
9.3970,675,2.1774
9.4013,870,2.8065
9.4057,1004,3.2387
9.4108,996,3.2129
9.4178,649,2.0935
9.4222,992,3.2000
9.4266,1003,3.2355
9.4310,989,3.1903
9.4354,743,2.3968
9.4398,696,2.2452
9.4441,1005,3.2419
9.4493,1001,3.2290
9.4537,840,2.7097
9.4582,632,2.0387
9.4626,1000,3.2258
9.4669,1005,3.2419
9.4713,984,3.1742
9.4757,726,2.3419
9.4801,741,2.3903
9.4845,1006,3.2452
9.4889,1002,3.2323
9.4934,880,2.8387
9.4978,658,2.1226
9.5022,998,3.2194
9.5065,1006,3.2452
9.5109,995,3.2097
9.5153,757,2.4419
9.5197,706,2.2774
9.5241,1004,3.2387
9.5285,1002,3.2323
9.5328,907,2.9258
9.5372,665,2.1452
9.5416,942,3.0387
9.5460,1004,3.2387
9.5504,1000,3.2258
9.5548,789,2.5452
9.5593,682,2.2000
9.5637,1005,3.2419
9.5680,1002,3.2323
9.5725,931,3.0032
9.5769,681,2.1968
9.5813,907,2.9258
9.5857,1005,3.2419
9.5900,1000,3.2258
9.5944,844,2.7226
9.5988,684,2.2065
9.6031,1004,3.2387
9.6075,1003,3.2355
9.6118,990,3.1935
9.6162,759,2.4484
9.6206,849,2.7387
9.6249,1002,3.2323
9.6293,1003,3.2355
9.6336,922,2.9742
9.6380,707,2.2806
9.6424,1003,3.2355
9.6467,1004,3.2387
9.6510,998,3.2194
9.6553,800,2.5806
9.6597,749,2.4161
9.6640,1002,3.2323
9.6684,1005,3.2419
9.6727,946,3.0516
9.6771,695,2.2419
9.6815,942,3.0387
9.6858,1004,3.2387
9.6902,1001,3.2290
9.6945,829,2.6742
9.6989,687,2.2161
9.7033,1004,3.2387
9.7077,1005,3.2419
9.7120,971,3.1323
9.7177,657,2.1194
9.7220,1003,3.2355
9.7264,1006,3.2452
9.7307,999,3.2226
9.7351,795,2.5645
9.7394,715,2.3065
9.7436,1004,3.2387
9.7479,1004,3.2387
9.7522,975,3.1452
9.7565,733,2.3645
9.7608,887,2.8613
9.7651,1005,3.2419
9.7694,1002,3.2323
9.7737,899,2.9000
9.7780,687,2.2161
9.7822,1003,3.2355
9.7865,1005,3.2419
9.7908,997,3.2161
9.7951,790,2.5484
9.7993,716,2.3097
9.8036,1006,3.2452
9.8079,1005,3.2419
9.8121,977,3.1516
9.8162,738,2.3806
9.8205,831,2.6806
9.8247,1005,3.2419
9.8289,1003,3.2355
9.8331,919,2.9645
9.8373,689,2.2226
9.8415,971,3.1323
9.8457,1005,3.2419
9.8499,1002,3.2323
9.8542,856,2.7613
9.8585,691,2.2290
9.8628,1001,3.2290
9.8670,1004,3.2387
9.8713,997,3.2161
9.8756,785,2.5323
9.8800,794,2.5613
9.8843,1004,3.2387
9.8886,1004,3.2387
9.8929,939,3.0290
9.8972,708,2.2839
9.9018,1002,3.2323
9.9062,1003,3.2355
9.9105,1000,3.2258
9.9148,829,2.6742
9.9190,720,2.3226
9.9233,1005,3.2419
9.9275,1004,3.2387
9.9318,983,3.1710
9.9361,746,2.4065
9.9404,830,2.6774
9.9446,1004,3.2387
9.9488,1002,3.2323
9.9531,916,2.9548
9.9573,681,2.1968
9.9615,973,3.1387
9.9657,1002,3.2323
9.9699,1000,3.2258
9.9742,848,2.7355
9.9785,691,2.2290
9.9828,1005,3.2419
9.9871,1005,3.2419
9.9914,1002,3.2323
9.9957,843,2.7194
10.0000,791,2.5516
10.0044,1003,3.2355
10.0092,966,3.1161
10.0268,1005,3.2419
10.0328,918,2.9613
10.0371,687,2.2161
10.0414,982,3.1677
10.0457,1004,3.2387
10.0500,1001,3.2290
10.0543,840,2.7097
10.0585,689,2.2226
10.0629,1004,3.2387
10.0672,1006,3.2452
10.0715,993,3.2032
10.0758,745,2.4032
10.0800,787,2.5387
10.0843,1003,3.2355
10.0885,1004,3.2387
10.0927,936,3.0194
10.0969,706,2.2774
10.1011,946,3.0516
10.1056,1005,3.2419
10.1099,1002,3.2323
10.1141,855,2.7581
10.1183,688,2.2194
10.1225,1002,3.2323
10.1268,1005,3.2419
10.1310,997,3.2161
10.1352,787,2.5387
10.1394,750,2.4194
10.1436,1007,3.2484
10.1478,1005,3.2419
10.1520,978,3.1548
10.1563,748,2.4129
10.1605,896,2.8903
10.1647,1006,3.2452
10.1690,1004,3.2387
10.1732,935,3.0161
10.1774,709,2.2871
10.1817,1002,3.2323
10.1860,1003,3.2355
10.1902,1000,3.2258
10.1944,838,2.7032
10.1986,696,2.2452
10.2029,1004,3.2387
10.2073,1005,3.2419
10.2116,996,3.2129
10.2159,764,2.4645
10.2202,852,2.7484
10.2245,1005,3.2419
10.2288,1004,3.2387
10.2333,938,3.0258
10.2376,723,2.3323
10.2419,1002,3.2323
10.2462,1004,3.2387
10.2505,1001,3.2290
10.2548,855,2.7581
10.2590,766,2.4710
10.2632,1005,3.2419
10.2675,1003,3.2355
10.2717,996,3.2129
10.2759,792,2.5548
10.2802,877,2.8290
10.2844,1007,3.2484
10.2887,1002,3.2323
10.2929,950,3.0645
10.2972,731,2.3581
10.3015,1003,3.2355
10.3059,1005,3.2419
10.3111,999,3.2226
10.3176,712,2.2968
10.3219,1002,3.2323
10.3262,1002,3.2323
10.3305,999,3.2226
10.3349,803,2.5903
10.3392,754,2.4323
10.3435,1006,3.2452
10.3478,1004,3.2387
10.3522,968,3.1226
10.3565,713,2.3000
10.3608,923,2.9774
10.3650,1006,3.2452
10.3693,1002,3.2323
10.3735,887,2.8613
10.3777,669,2.1581
10.3819,1005,3.2419
10.3861,1006,3.2452
10.3904,998,3.2194
10.3946,815,2.6290
10.3988,733,2.3645
10.4030,1006,3.2452
10.4073,1005,3.2419
10.4116,988,3.1871
10.4159,759,2.4484
10.4201,860,2.7742
10.4243,1002,3.2323
10.4286,1005,3.2419
10.4328,928,2.9935
10.4371,698,2.2516
10.4414,1000,3.2258
10.4456,1004,3.2387
10.4499,1002,3.2323
10.4543,828,2.6710
10.4586,711,2.2935
10.4629,1005,3.2419
10.4673,1001,3.2290
10.4716,980,3.1613
10.4760,720,2.3226
10.4804,887,2.8613
10.4847,1003,3.2355
10.4891,1001,3.2290
10.4935,887,2.8613
10.4979,699,2.2548
10.5022,1004,3.2387
10.5065,1006,3.2452
10.5109,996,3.2129
10.5152,776,2.5032
10.5195,784,2.5290
10.5239,1004,3.2387
10.5282,1005,3.2419
10.5327,926,2.9871
10.5370,703,2.2677
10.5412,1000,3.2258
10.5455,1007,3.2484
10.5498,1000,3.2258
10.5541,838,2.7032
10.5584,713,2.3000
10.5627,1006,3.2452
10.5670,1004,3.2387
10.5713,991,3.1968
10.5756,764,2.4645
10.5798,835,2.6935
10.5841,1005,3.2419
10.5884,1002,3.2323
10.5927,938,3.0258
10.5970,713,2.3000
10.6013,1002,3.2323
10.6060,1004,3.2387
10.6113,994,3.2065
10.6177,699,2.2548
10.6220,1003,3.2355
10.6263,1003,3.2355
10.6306,998,3.2194
10.6351,772,2.4903
10.6394,793,2.5581
10.6437,1004,3.2387
10.6480,1002,3.2323
10.6523,994,3.2065
10.6565,816,2.6323
10.6608,1001,3.2290
10.6651,1004,3.2387
10.6694,997,3.2161
10.6736,788,2.5419
10.6779,656,2.1161
10.6822,1004,3.2387
10.6865,1005,3.2419
10.6908,996,3.2129
10.6951,772,2.4903
10.6994,796,2.5677
10.7037,1006,3.2452
10.7081,1004,3.2387
10.7124,941,3.0355
10.7168,708,2.2839
10.7211,1001,3.2290
10.7254,1004,3.2387
10.7297,1001,3.2290
10.7340,848,2.7355
10.7383,716,2.3097
10.7426,1005,3.2419
10.7469,1004,3.2387
10.7512,989,3.1903
10.7555,750,2.4194
10.7599,854,2.7548
10.7642,1005,3.2419
10.7685,1003,3.2355
10.7727,917,2.9581
10.7769,696,2.2452
10.7812,1000,3.2258
10.7855,1005,3.2419
10.7898,1000,3.2258
10.7941,819,2.6419
10.7985,730,2.3548
10.8028,1005,3.2419
10.8071,1004,3.2387
10.8114,986,3.1806
10.8157,758,2.4452
10.8199,873,2.8161
10.8241,1005,3.2419
10.8284,1003,3.2355
10.8327,915,2.9516
10.8370,698,2.2516
10.8413,1004,3.2387
10.8456,1005,3.2419
10.8499,1002,3.2323
10.8542,812,2.6194
10.8584,702,2.2645
10.8627,1006,3.2452
10.8670,1005,3.2419
10.8712,976,3.1484
10.8754,739,2.3839
10.8796,820,2.6452
10.8839,1004,3.2387
10.8881,1002,3.2323
10.8923,929,2.9968
10.8965,689,2.2226
10.9008,983,3.1710
10.9050,1004,3.2387
10.9093,1003,3.2355
10.9136,858,2.7677
10.9179,712,2.2968
10.9222,1003,3.2355
10.9266,1005,3.2419
10.9309,997,3.2161
10.9352,775,2.5000
10.9395,831,2.6806
10.9438,1006,3.2452
10.9482,1005,3.2419
10.9524,929,2.9968
10.9567,702,2.2645
10.9610,998,3.2194
10.9653,1006,3.2452
10.9695,1002,3.2323
10.9742,800,2.5806
10.9785,722,2.3290
10.9829,1003,3.2355
10.9874,1003,3.2355
10.9919,928,2.9935
10.9963,684,2.2065
11.0008,981,3.1645
11.0055,1002,3.2323
11.0100,996,3.2129
11.0144,766,2.4710
11.0189,748,2.4129
11.0237,1004,3.2387
11.0282,1003,3.2355
11.0325,882,2.8452
11.0369,664,2.1419
11.0413,1003,3.2355
11.0457,1001,3.2290
11.0501,999,3.2226
11.0545,777,2.5065
11.0590,769,2.4806
11.0634,1004,3.2387
11.0678,1003,3.2355
11.0722,906,2.9226
11.0766,678,2.1871
11.0810,1000,3.2258
11.0855,1002,3.2323
11.0899,997,3.2161
11.0943,771,2.4871
11.0987,729,2.3516
11.1030,1004,3.2387
11.1074,1003,3.2355
11.1117,928,2.9935
11.1161,683,2.2032
11.1205,951,3.0677
11.1249,1005,3.2419
11.1293,1001,3.2290
11.1336,810,2.6129
11.1380,685,2.2097
11.1424,1005,3.2419
11.1468,1003,3.2355
11.1512,960,3.0968
11.1557,691,2.2290
11.1601,901,2.9065
11.1645,1002,3.2323
11.1688,1002,3.2323
11.1732,849,2.7387
11.1776,682,2.2000
11.1820,1003,3.2355
11.1864,1002,3.2323
11.1908,968,3.1226
11.1952,709,2.2871
11.1996,832,2.6839
11.2040,1005,3.2419
11.2084,1003,3.2355
11.2128,853,2.7516
11.2187,742,2.3935
11.2231,1005,3.2419
11.2275,1004,3.2387
11.2322,908,2.9290
11.2366,670,2.1613
11.2410,1003,3.2355
11.2454,1003,3.2355
11.2499,994,3.2065
11.2543,758,2.4452
11.2587,734,2.3677
11.2631,1005,3.2419
11.2675,1002,3.2323
11.2718,915,2.9516
11.2762,667,2.1516
11.2806,981,3.1645
11.2850,1006,3.2452
11.2894,999,3.2226
11.2938,786,2.5355
11.2982,700,2.2581
11.3026,1005,3.2419
11.3070,1003,3.2355
11.3115,990,3.1935
11.3159,778,2.5097
11.3203,998,3.2194
11.3246,1006,3.2452
11.3290,999,3.2226
11.3334,793,2.5581
11.3378,673,2.1710
11.3422,1003,3.2355
11.3466,1002,3.2323
11.3509,944,3.0452
11.3553,689,2.2226
11.3597,857,2.7645
11.3641,1004,3.2387
11.3685,1000,3.2258
11.3729,847,2.7323
11.3773,668,2.1548
11.3816,1003,3.2355
11.3860,1002,3.2323
11.3903,990,3.1935
11.3946,743,2.3968
11.3990,771,2.4871
11.4034,1005,3.2419
11.4077,1003,3.2355
11.4121,892,2.8774
11.4165,653,2.1065
11.4208,1001,3.2290
11.4252,1004,3.2387
11.4295,1001,3.2290
11.4339,796,2.5677
11.4382,726,2.3419
11.4426,1005,3.2419
11.4469,1004,3.2387
11.4513,954,3.0774
11.4556,704,2.2710
11.4600,922,2.9742
11.4643,1006,3.2452
11.4687,1003,3.2355
11.4730,846,2.7290
11.4773,687,2.2161
11.4817,1002,3.2323
11.4861,1005,3.2419
11.4904,991,3.1968
11.4948,739,2.3839
11.4991,807,2.6032
11.5035,1002,3.2323
11.5079,1003,3.2355
11.5123,880,2.8387
11.5182,708,2.2839
11.5226,1006,3.2452
11.5270,1003,3.2355
11.5313,943,3.0419
11.5356,702,2.2645
11.5399,920,2.9677
11.5442,1004,3.2387
11.5484,1002,3.2323
11.5527,869,2.8032
11.5569,668,2.1548
11.5611,1003,3.2355
11.5654,1004,3.2387
11.5696,998,3.2194
11.5738,793,2.5581
11.5780,708,2.2839
11.5823,1005,3.2419
11.5865,1004,3.2387
11.5907,986,3.1806
11.5949,758,2.4452
11.5992,842,2.7161
11.6034,1004,3.2387
11.6077,1001,3.2290
11.6120,916,2.9548
11.6163,698,2.2516
11.6205,1001,3.2290
11.6247,1004,3.2387
11.6289,1000,3.2258
11.6331,828,2.6710
11.6373,682,2.2000
11.6416,1006,3.2452
11.6458,1004,3.2387
11.6500,992,3.2000
11.6542,751,2.4226
11.6584,732,2.3613
11.6627,1002,3.2323
11.6669,1004,3.2387
11.6711,940,3.0323
11.6753,684,2.2065
11.6796,856,2.7613
11.6838,1005,3.2419
11.6880,1003,3.2355
11.6922,868,2.8000
11.6964,666,2.1484
11.7006,1002,3.2323
11.7049,1005,3.2419
11.7091,999,3.2226
11.7134,800,2.5806
11.7177,692,2.2323
11.7219,1005,3.2419
11.7261,1002,3.2323
11.7304,978,3.1548
11.7346,735,2.3710
11.7388,783,2.5258
11.7431,1005,3.2419
11.7473,1001,3.2290
11.7515,902,2.9097
11.7557,672,2.1677
11.7599,924,2.9806
11.7642,1003,3.2355
11.7684,1000,3.2258
11.7726,837,2.7000
11.7768,656,2.1161
11.7811,1004,3.2387
11.7853,1003,3.2355
11.7896,993,3.2032
11.7938,771,2.4871
11.7980,714,2.3032
11.8022,1003,3.2355
11.8065,1005,3.2419
11.8108,952,3.0710
11.8150,707,2.2806
11.8192,837,2.7000
11.8235,1005,3.2419
11.8277,1003,3.2355
11.8319,892,2.8774
11.8361,672,2.1677
11.8403,992,3.2000
11.8446,1005,3.2419
11.8488,998,3.2194
11.8530,814,2.6258
11.8572,676,2.1806
11.8615,1004,3.2387
11.8657,1004,3.2387
11.8699,986,3.1806
11.8741,748,2.4129
11.8783,751,2.4226
11.8825,1003,3.2355
11.8868,1003,3.2355
11.8910,947,3.0548
11.8952,708,2.2839
11.8994,885,2.8548
11.9036,1004,3.2387
11.9079,1002,3.2323
11.9121,884,2.8516
11.9163,678,2.1871
11.9206,1001,3.2290
11.9248,1002,3.2323
11.9291,998,3.2194
11.9334,783,2.5258
11.9376,695,2.2419
11.9418,1005,3.2419
11.9460,1004,3.2387
11.9502,994,3.2065
11.9545,759,2.4484
11.9587,792,2.5548
11.9629,1005,3.2419
11.9671,1002,3.2323
11.9713,960,3.0968
11.9755,724,2.3355
11.9797,911,2.9387
11.9839,1002,3.2323
11.9882,994,3.2065
11.9925,764,2.4645
11.9967,623,2.0097
12.0013,1005,3.2419
12.0057,1004,3.2387
12.0100,985,3.1774
12.0143,738,2.3806
12.0187,798,2.5742
12.0229,1005,3.2419
12.0273,1003,3.2355
12.0315,903,2.9129
12.0358,674,2.1742
12.0401,991,3.1968
12.0445,1005,3.2419
12.0488,999,3.2226
12.0531,799,2.5774
12.0574,691,2.2290
12.0616,1004,3.2387
12.0659,1005,3.2419
12.0702,981,3.1645
12.0746,728,2.3484
12.0789,816,2.6323
12.0831,1005,3.2419
12.0873,1002,3.2323
12.0916,894,2.8839
12.0958,671,2.1645
12.1000,970,3.1290
12.1042,1006,3.2452
12.1086,1002,3.2323
12.1129,813,2.6226
12.1181,740,2.3871
12.1224,1004,3.2387
12.1266,1003,3.2355
12.1309,944,3.0452
12.1351,697,2.2484
12.1393,888,2.8645
12.1435,1005,3.2419
12.1477,1001,3.2290
12.1519,895,2.8871
12.1561,687,2.2161
12.1603,1000,3.2258
12.1645,1005,3.2419
12.1687,998,3.2194
12.1730,821,2.6484
12.1773,696,2.2452
12.1815,1004,3.2387
12.1858,1002,3.2323
12.1901,975,3.1452
12.1944,727,2.3452
12.1988,834,2.6903
12.2031,1007,3.2484
12.2074,1000,3.2258
12.2117,904,2.9161
12.2160,685,2.2097
12.2204,1001,3.2290
12.2247,1006,3.2452
12.2290,999,3.2226
12.2333,801,2.5839
12.2376,733,2.3645
12.2419,1006,3.2452
12.2462,1005,3.2419
12.2504,983,3.1710
12.2546,738,2.3806
12.2588,846,2.7290
12.2630,1004,3.2387
12.2672,1004,3.2387
12.2715,920,2.9677
12.2757,691,2.2290
12.2800,998,3.2194
12.2842,1004,3.2387
12.2884,1001,3.2290
12.2927,842,2.7161
12.2970,688,2.2194
12.3014,1005,3.2419
12.3056,1005,3.2419
12.3099,994,3.2065
12.3141,771,2.4871
12.3184,795,2.5645
12.3226,1005,3.2419
12.3269,1004,3.2387
12.3312,930,3.0000
12.3355,700,2.2581
12.3398,991,3.1968
12.3441,1005,3.2419
12.3484,1002,3.2323
12.3527,848,2.7355
12.3570,740,2.3871
12.3613,1003,3.2355
12.3656,1004,3.2387
12.3700,999,3.2226
12.3743,799,2.5774
12.3787,869,2.8032
12.3830,1005,3.2419
12.3872,1002,3.2323
12.3914,933,3.0097
12.3957,697,2.2484
12.4000,1000,3.2258
12.4042,1005,3.2419
12.4085,1003,3.2355
12.4128,832,2.6839
12.4184,818,2.6387
12.4227,1003,3.2355
12.4270,1002,3.2323
12.4312,948,3.0581
12.4355,701,2.2613
12.4397,992,3.2000
12.4439,1004,3.2387
12.4481,1001,3.2290
12.4523,885,2.8548
12.4566,714,2.3032
12.4608,1005,3.2419
12.4650,1001,3.2290
12.4693,1001,3.2290
12.4735,803,2.5903
12.4777,756,2.4387
12.4819,1003,3.2355
12.4862,1005,3.2419
12.4905,983,3.1710
12.4947,735,2.3710
12.4990,899,2.9000
12.5033,1007,3.2484
12.5076,1001,3.2290
12.5118,908,2.9290
12.5162,706,2.2774
12.5205,1004,3.2387
12.5248,1003,3.2355
12.5292,1000,3.2258
12.5336,818,2.6387
12.5380,805,2.5968
12.5423,1006,3.2452
12.5467,1004,3.2387
12.5509,968,3.1226
12.5552,743,2.3968
12.5595,996,3.2129
12.5637,1005,3.2419
12.5680,1001,3.2290
12.5722,906,2.9226
12.5764,707,2.2806
12.5807,1005,3.2419
12.5849,1006,3.2452
12.5891,1003,3.2355
12.5933,869,2.8032
12.5975,790,2.5484
12.6018,1003,3.2355
12.6061,1002,3.2323
12.6103,997,3.2161
12.6146,783,2.5258
12.6190,909,2.9323
12.6233,1004,3.2387
12.6275,1003,3.2355
12.6317,873,2.8161
12.6359,643,2.0742
12.6402,1003,3.2355
12.6445,1005,3.2419
12.6488,998,3.2194
12.6531,834,2.6903
12.6574,761,2.4548
12.6617,1002,3.2323
12.6660,1004,3.2387
12.6703,989,3.1903
12.6747,764,2.4645
12.6790,953,3.0742
12.6834,1005,3.2419
12.6877,1004,3.2387
12.6919,919,2.9645
12.6962,730,2.3548
12.7005,1004,3.2387
12.7048,1006,3.2452
12.7092,999,3.2226
12.7135,823,2.6548
12.7177,798,2.5742
12.7220,1004,3.2387
12.7263,1004,3.2387
12.7304,978,3.1548
12.7346,754,2.4323
12.7388,923,2.9774
12.7431,1004,3.2387
12.7473,1003,3.2355
12.7515,940,3.0323
12.7557,711,2.2935
12.7599,1002,3.2323
12.7642,1004,3.2387
12.7684,1003,3.2355
12.7726,870,2.8065
12.7769,791,2.5516
12.7811,1007,3.2484
12.7854,1006,3.2452
12.7896,1004,3.2387
12.7938,903,2.9129
12.7980,901,2.9065
12.8022,1004,3.2387
12.8065,1003,3.2355
12.8108,971,3.1323
12.8150,746,2.4065
12.8193,999,3.2226
12.8237,1006,3.2452
12.8280,1003,3.2355
12.8323,878,2.8323
12.8367,716,2.3097
12.8411,1005,3.2419
12.8455,1005,3.2419
12.8498,996,3.2129
12.8541,790,2.5484
12.8584,872,2.8129
12.8626,1004,3.2387
12.8669,1002,3.2323
12.8712,944,3.0452
12.8755,708,2.2839
12.8798,1005,3.2419
12.8841,1005,3.2419
12.8884,1002,3.2323
12.8926,875,2.8226
12.8969,751,2.4226
12.9012,1004,3.2387
12.9056,1002,3.2323
12.9099,992,3.2000
12.9142,769,2.4806
12.9185,886,2.8581
12.9228,1004,3.2387
12.9270,1002,3.2323
12.9312,931,3.0032
12.9356,704,2.2710
12.9398,1001,3.2290
12.9440,1004,3.2387
12.9483,1002,3.2323
12.9528,843,2.7194
12.9570,746,2.4065
12.9612,1006,3.2452
12.9654,1006,3.2452
12.9697,996,3.2129
12.9739,775,2.5000
12.9782,853,2.7516
12.9824,1006,3.2452
12.9866,1004,3.2387
12.9909,950,3.0645
12.9951,726,2.3419
12.9993,997,3.2161
13.0035,1004,3.2387
13.0078,1002,3.2323
13.0121,858,2.7677
13.0182,832,2.6839
13.0225,1003,3.2355
13.0268,1003,3.2355
13.0311,923,2.9774
13.0353,697,2.2484
13.0395,1001,3.2290
13.0437,1005,3.2419
13.0480,1002,3.2323
13.0523,845,2.7258
13.0565,698,2.2516
13.0608,1004,3.2387
13.0651,1004,3.2387
13.0694,996,3.2129
13.0738,780,2.5161
13.0781,869,2.8032
13.0825,1006,3.2452
13.0868,1003,3.2355
13.0911,947,3.0548
13.0953,730,2.3548
13.0996,1000,3.2258
13.1040,1006,3.2452
13.1084,1002,3.2323
13.1127,847,2.7323
13.1170,753,2.4290
13.1213,1005,3.2419
13.1255,1005,3.2419
13.1298,985,3.1774
13.1341,727,2.3452
13.1384,878,2.8323
13.1427,1004,3.2387
13.1470,1002,3.2323
13.1513,917,2.9581
13.1556,691,2.2290
13.1599,1004,3.2387
13.1642,1005,3.2419
13.1684,1001,3.2290
13.1726,801,2.5839
13.1769,705,2.2742
13.1811,1004,3.2387
13.1853,1006,3.2452
13.1895,990,3.1935
13.1937,772,2.4903
13.1979,838,2.7032
13.2021,1004,3.2387
13.2063,1005,3.2419
13.2105,948,3.0581
13.2148,718,2.3161
13.2190,997,3.2161
13.2233,1004,3.2387
13.2275,1002,3.2323
13.2317,973,3.1387
13.2360,787,2.5387
13.2402,1003,3.2355
13.2444,1001,3.2290
13.2486,796,2.5677
13.2528,557,1.7968
13.2570,644,2.0774
13.2612,1005,3.2419
13.2654,1004,3.2387
13.2696,993,3.2032
13.2739,758,2.4452
13.2781,858,2.7677
13.2823,1004,3.2387
13.2866,1002,3.2323
13.2909,930,3.0000
13.2952,704,2.2710
13.2996,1003,3.2355
13.3039,1006,3.2452
13.3083,998,3.2194
13.3127,809,2.6097
13.3186,936,3.0194
13.3230,1005,3.2419
13.3273,1003,3.2355
13.3315,891,2.8742
13.3359,692,2.2323
13.3402,1004,3.2387
13.3444,1003,3.2355
13.3487,1000,3.2258
13.3529,812,2.6194
13.3571,770,2.4839
13.3614,1005,3.2419
13.3656,1002,3.2323
13.3698,994,3.2065
13.3740,765,2.4677
13.3783,911,2.9387
13.3825,1006,3.2452
13.3868,1004,3.2387
13.3910,945,3.0484
13.3952,732,2.3613
13.3995,1003,3.2355
13.4038,1004,3.2387
13.4081,1001,3.2290
13.4124,841,2.7129
13.4167,728,2.3484
13.4210,1004,3.2387
13.4253,1006,3.2452
13.4296,994,3.2065
13.4339,740,2.3871
13.4383,898,2.8968
13.4428,1006,3.2452
13.4471,1002,3.2323
13.4514,918,2.9613
13.4558,681,2.1968
13.4601,1006,3.2452
13.4644,1005,3.2419
13.4687,998,3.2194
13.4730,802,2.5871
13.4774,797,2.5710
13.4817,1004,3.2387
13.4861,1004,3.2387
13.4904,967,3.1194
13.4948,736,2.3742
13.4992,1002,3.2323
13.5037,1004,3.2387
13.5082,1000,3.2258
13.5127,850,2.7419
13.5171,803,2.5903
13.5215,1007,3.2484
13.5261,1005,3.2419
13.5306,954,3.0774
13.5351,727,2.3452
13.5395,1004,3.2387
13.5439,1004,3.2387
13.5483,1002,3.2323
13.5527,828,2.6710
13.5570,767,2.4742
13.5614,1005,3.2419
13.5658,1003,3.2355
13.5702,958,3.0903
13.5745,721,2.3258
13.5789,989,3.1903
13.5833,1003,3.2355
13.5877,1001,3.2290
13.5921,850,2.7419
13.5965,732,2.3613
13.6009,1005,3.2419
13.6056,1004,3.2387
13.6100,976,3.1484
13.6144,740,2.3871
13.6187,988,3.1871
13.6231,1004,3.2387
13.6275,1001,3.2290
13.6318,865,2.7903
13.6362,725,2.3387
13.6406,1006,3.2452
13.6450,1005,3.2419
13.6494,996,3.2129
13.6538,780,2.5161
13.6581,979,3.1581
13.6625,1007,3.2484
13.6669,1003,3.2355
13.6713,979,3.1581
13.6756,788,2.5419
13.6800,1004,3.2387
13.6843,1005,3.2419
13.6887,999,3.2226
13.6931,780,2.5161
13.6975,817,2.6355
13.7018,1006,3.2452
13.7062,1004,3.2387
13.7106,924,2.9806
13.7150,701,2.2613
13.7193,1003,3.2355
13.7237,1004,3.2387
13.7281,1000,3.2258
13.7325,811,2.6161
13.7369,769,2.4806
13.7413,1004,3.2387
13.7456,1001,3.2290
13.7500,965,3.1129
13.7544,716,2.3097
13.7589,1002,3.2323
13.7633,1004,3.2387
13.7677,1003,3.2355
13.7721,863,2.7839
13.7765,760,2.4516
13.7809,1004,3.2387
13.7853,1004,3.2387
13.7897,974,3.1419
13.7941,737,2.3774
13.7985,975,3.1452
13.8028,1004,3.2387
13.8072,1003,3.2355
13.8116,877,2.8290
13.8160,713,2.3000
13.8204,1005,3.2419
13.8247,1004,3.2387
13.8292,985,3.1774
13.8336,723,2.3323
13.8380,882,2.8452
13.8424,1005,3.2419
13.8468,1001,3.2290
13.8512,928,2.9935
13.8556,754,2.4323
13.8600,1004,3.2387
13.8643,1002,3.2323
13.8687,1001,3.2290
13.8733,837,2.7000
13.8777,981,3.1645
13.8821,1004,3.2387
13.8865,1003,3.2355
13.8908,985,3.1774
13.8952,785,2.5323
13.8997,1002,3.2323
13.9041,1005,3.2419
13.9085,986,3.1806
13.9130,736,2.3742
13.9199,1004,3.2387
13.9243,1003,3.2355
13.9287,989,3.1903
13.9331,739,2.3839
13.9375,833,2.6871
13.9419,1005,3.2419
13.9462,1003,3.2355
13.9506,891,2.8742
13.9549,654,2.1097
13.9592,1002,3.2323
13.9636,1004,3.2387
13.9680,995,3.2097
13.9723,756,2.4387
13.9767,727,2.3452
13.9810,1005,3.2419
13.9854,1004,3.2387
13.9897,938,3.0258
13.9941,697,2.2484
13.9984,960,3.0968
14.0028,1005,3.2419
14.0071,1000,3.2258
14.0115,851,2.7452
14.0159,713,2.3000
14.0202,1002,3.2323
14.0245,1006,3.2452
14.0289,993,3.2032
14.0332,768,2.4774
14.0376,862,2.7806
14.0419,1006,3.2452
14.0463,1003,3.2355
14.0506,912,2.9419
14.0550,698,2.2516
14.0593,1002,3.2323
14.0637,1004,3.2387
14.0680,998,3.2194
14.0724,799,2.5774
14.0767,776,2.5032
14.0811,1005,3.2419
14.0854,1002,3.2323
14.0897,965,3.1129
14.0941,709,2.2871
14.0984,981,3.1645
14.1028,1002,3.2323
14.1071,1003,3.2355
14.1115,878,2.8323
14.1158,724,2.3355
14.1202,1005,3.2419
14.1245,1003,3.2355
14.1288,987,3.1839
14.1332,742,2.3935
14.1375,844,2.7226
14.1418,1004,3.2387
14.1461,1002,3.2323
14.1504,917,2.9581
14.1547,684,2.2065
14.1590,1003,3.2355
14.1633,1002,3.2323
14.1676,1002,3.2323
14.1718,821,2.6484
14.1761,710,2.2903
14.1804,1004,3.2387
14.1847,1003,3.2355
14.1890,990,3.1935
14.1932,757,2.4419
14.1975,871,2.8097
14.2018,1005,3.2419
14.2062,1001,3.2290
14.2105,918,2.9613
14.2190,1002,3.2323
14.2235,1005,3.2419
14.2278,1001,3.2290
14.2322,816,2.6323
14.2364,747,2.4097
14.2407,1004,3.2387
14.2450,1003,3.2355
14.2493,966,3.1161
14.2535,726,2.3419
14.2578,896,2.8903
14.2621,1005,3.2419
14.2664,1000,3.2258
14.2707,887,2.8613
14.2749,680,2.1935
14.2792,1003,3.2355
14.2836,1002,3.2323
14.2879,999,3.2226
14.2922,803,2.5903
14.2964,744,2.4000
14.3007,1003,3.2355
14.3050,1005,3.2419
14.3094,967,3.1194
14.3137,854,2.7548
14.3179,1007,3.2484
14.3222,1007,3.2484
14.3265,1006,3.2452
14.3307,1003,3.2355
14.3350,1002,3.2323
14.3393,1004,3.2387
14.3436,1004,3.2387
14.3478,1004,3.2387
14.3520,904,2.9161
14.3562,799,2.5774
14.3604,1004,3.2387
14.3646,1005,3.2419
14.3688,965,3.1129
14.3730,704,2.2710
14.3772,809,2.6097
14.3815,1005,3.2419
14.3857,1005,3.2419
14.3899,934,3.0129
14.3942,704,2.2710
14.3984,990,3.1935
14.4027,1006,3.2452
14.4070,1002,3.2323
14.4113,844,2.7226
14.4156,706,2.2774
14.4199,1003,3.2355
14.4243,1004,3.2387
14.4286,991,3.1968
14.4329,743,2.3968
14.4372,838,2.7032
14.4415,1005,3.2419
14.4458,1004,3.2387
14.4501,932,3.0065
14.4544,717,2.3129
14.4587,1003,3.2355
14.4630,1005,3.2419
14.4673,1002,3.2323
14.4716,835,2.6935
14.4758,720,2.3226
14.4800,1005,3.2419
14.4843,1004,3.2387
14.4886,997,3.2161
14.4929,814,2.6258
14.4972,887,2.8613
14.5015,1004,3.2387
14.5058,1003,3.2355
14.5101,944,3.0452
14.5145,717,2.3129
14.5188,1002,3.2323
14.5233,1005,3.2419
14.5276,993,3.2032
14.5319,757,2.4419
14.5362,711,2.2935
14.5405,1003,3.2355
14.5448,1004,3.2387
14.5490,959,3.0935
14.5534,686,2.2129
14.5577,887,2.8613
14.5620,1005,3.2419
14.5663,1003,3.2355
14.5706,879,2.8355
14.5750,679,2.1903
14.5793,1003,3.2355
14.5836,1005,3.2419
14.5880,997,3.2161
14.5924,781,2.5194
14.5967,806,2.6000
14.6010,1005,3.2419
14.6056,1003,3.2355
14.6099,931,3.0032
14.6142,711,2.2935
14.6185,1003,3.2355
14.6228,1004,3.2387
14.6271,1002,3.2323
14.6314,834,2.6903
14.6357,726,2.3419
14.6400,1004,3.2387
14.6443,1002,3.2323
14.6486,990,3.1935
14.6529,757,2.4419
14.6572,854,2.7548
14.6614,1004,3.2387
14.6657,1002,3.2323
14.6700,915,2.9516
14.6743,697,2.2484
14.6785,1003,3.2355
14.6828,1005,3.2419
14.6871,1000,3.2258
14.6917,819,2.6419
14.6960,749,2.4161
14.7003,1005,3.2419
14.7046,1003,3.2355
14.7090,972,3.1355
14.7134,726,2.3419
14.7177,952,3.0710
14.7220,1005,3.2419
14.7263,1001,3.2290
14.7306,898,2.8968
14.7349,711,2.2935
14.7391,1003,3.2355
14.7434,1004,3.2387
14.7476,1000,3.2258
14.7518,828,2.6710
14.7561,761,2.4548
14.7603,1004,3.2387
14.7646,1004,3.2387
14.7689,983,3.1710
14.7733,749,2.4161
14.7775,943,3.0419
14.7818,1007,3.2484
14.7861,1002,3.2323
14.7904,917,2.9581
14.7946,715,2.3065
14.7988,1002,3.2323
14.8030,1002,3.2323
14.8073,1000,3.2258
14.8124,754,2.4323
14.8186,1002,3.2323
14.8230,1002,3.2323
14.8272,997,3.2161
14.8315,786,2.5355
14.8358,698,2.2516
14.8400,1005,3.2419
14.8443,1004,3.2387
14.8485,982,3.1677
14.8527,737,2.3774
14.8570,844,2.7226
14.8612,1005,3.2419
14.8654,1003,3.2355
14.8696,943,3.0419
14.8738,721,2.3258
14.8781,998,3.2194
14.8823,1004,3.2387
14.8866,1003,3.2355
14.8908,877,2.8290
14.8951,703,2.2677
14.8994,1004,3.2387
14.9036,1002,3.2323
14.9079,993,3.2032
14.9121,764,2.4645
14.9163,771,2.4871
14.9205,1005,3.2419
14.9247,1005,3.2419
14.9290,955,3.0806
14.9333,706,2.2774
14.9375,924,2.9806
14.9417,1002,3.2323
14.9459,1003,3.2355
14.9502,892,2.8774
14.9544,663,2.1387
14.9586,1001,3.2290
14.9628,1005,3.2419
14.9670,1001,3.2290
14.9712,805,2.5968
14.9755,680,2.1935
14.9797,1005,3.2419
14.9839,1005,3.2419
14.9882,992,3.2000
14.9924,763,2.4613
14.9966,835,2.6935
15.0008,1005,3.2419
15.0051,1004,3.2387
15.0097,942,3.0387
15.0271,1001,3.2290
15.0331,739,2.3839
15.0375,943,3.0419
15.0418,1004,3.2387
15.0461,1003,3.2355
15.0504,874,2.8194
15.0547,693,2.2355
15.0590,1005,3.2419
15.0633,1005,3.2419
15.0676,999,3.2226
15.0719,804,2.5935
15.0762,792,2.5548
15.0805,1004,3.2387
15.0848,1002,3.2323
15.0891,973,3.1387
15.0934,741,2.3903
15.0977,983,3.1710
15.1019,1004,3.2387
15.1063,1003,3.2355
15.1105,894,2.8839
15.1192,1004,3.2387
15.1235,1005,3.2419
15.1277,998,3.2194
15.1320,765,2.4677
15.1363,796,2.5677
15.1406,1004,3.2387
15.1449,1003,3.2355
15.1492,999,3.2226
15.1534,852,2.7484
15.1577,997,3.2161
15.1620,1002,3.2323
15.1663,946,3.0516
15.1706,673,2.1710
15.1748,581,1.8742
15.1791,1004,3.2387
15.1834,1005,3.2419
15.1877,996,3.2129
15.1920,763,2.4613
15.1964,799,2.5774
15.2008,1004,3.2387
15.2051,1005,3.2419
15.2094,945,3.0484
15.2137,711,2.2935
15.2179,1001,3.2290
15.2222,1002,3.2323
15.2265,1003,3.2355
15.2308,865,2.7903
15.2350,719,2.3194
15.2393,1005,3.2419
15.2436,1003,3.2355
15.2479,998,3.2194
15.2522,772,2.4903
15.2564,821,2.6484
15.2607,1004,3.2387
15.2650,1004,3.2387
15.2693,965,3.1129
15.2736,718,2.3161
15.2779,1003,3.2355
15.2822,1007,3.2484
15.2865,1002,3.2323
15.2908,869,2.8032
15.2950,702,2.2645
15.2993,1006,3.2452
15.3036,1003,3.2355
15.3079,997,3.2161
15.3122,787,2.5387
15.3165,842,2.7161
15.3208,1006,3.2452
15.3251,1003,3.2355
15.3294,960,3.0968
15.3337,718,2.3161
15.3381,1002,3.2323
15.3424,1002,3.2323
15.3467,1003,3.2355
15.3509,856,2.7613
15.3552,712,2.2968
15.3595,1005,3.2419
15.3638,1005,3.2419
15.3681,996,3.2129
15.3724,740,2.3871
15.3766,834,2.6903
15.3809,1003,3.2355
15.3853,1001,3.2290
15.3895,951,3.0677
15.3938,733,2.3645
15.3981,1004,3.2387
15.4024,1003,3.2355
15.4067,1001,3.2290
15.4110,876,2.8258
15.4153,762,2.4581
15.4196,1004,3.2387
15.4239,1005,3.2419
15.4282,994,3.2065
15.4325,757,2.4419
15.4368,881,2.8419
15.4410,1004,3.2387
15.4453,1003,3.2355
15.4495,952,3.0710
15.4537,725,2.3387
15.4579,1003,3.2355
15.4622,1002,3.2323
15.4665,1002,3.2323
15.4707,862,2.7806
15.4749,715,2.3065
15.4792,1005,3.2419
15.4835,1004,3.2387
15.4878,993,3.2032
15.4921,780,2.5161
15.4964,883,2.8484
15.5007,1004,3.2387
15.5050,1004,3.2387
15.5093,989,3.1903
15.5137,774,2.4968
15.5181,1001,3.2290
15.5224,1006,3.2452
15.5267,1002,3.2323
15.5310,868,2.8000
15.5353,770,2.4839
15.5396,1004,3.2387
15.5439,1002,3.2323
15.5482,992,3.2000
15.5525,765,2.4677
15.5568,896,2.8903
15.5610,1005,3.2419
15.5653,1002,3.2323
15.5696,924,2.9806
15.5739,695,2.2419
15.5782,1003,3.2355
15.5825,1005,3.2419
15.5868,1000,3.2258
15.5910,822,2.6516
15.5954,736,2.3742
15.5997,1004,3.2387
15.6039,1003,3.2355
15.6082,981,3.1645
15.6124,742,2.3935
15.6165,844,2.7226
15.6207,1002,3.2323
15.6249,1004,3.2387
15.6292,941,3.0355
15.6334,710,2.2903
15.6376,999,3.2226
15.6419,1004,3.2387
15.6461,1001,3.2290
15.6503,879,2.8355
15.6545,707,2.2806
15.6587,1004,3.2387
15.6629,1004,3.2387
15.6672,1002,3.2323
15.6714,819,2.6419
15.6756,777,2.5065
15.6798,1005,3.2419
15.6840,1005,3.2419
15.6883,995,3.2097
15.6925,743,2.3968
15.6967,884,2.8516
15.7010,1006,3.2452
15.7053,1004,3.2387
15.7095,921,2.9710
15.7138,703,2.2677
15.7190,1006,3.2452
15.7234,1003,3.2355
15.7277,996,3.2129
15.7319,754,2.4323
15.7361,807,2.6032
15.7403,1004,3.2387
15.7446,1003,3.2355
15.7489,968,3.1226
15.7531,718,2.3161
15.7574,992,3.2000
15.7617,1004,3.2387
15.7660,1003,3.2355
15.7703,879,2.8355
15.7746,720,2.3226
15.7789,1005,3.2419
15.7833,1005,3.2419
15.7877,993,3.2032
15.7921,747,2.4097
15.7965,887,2.8613
15.8008,1006,3.2452
15.8054,1005,3.2419
15.8097,988,3.1871
15.8140,792,2.5548
15.8183,1001,3.2290
15.8226,1000,3.2258
15.8269,829,2.6742
15.8312,586,1.8903
15.8355,689,2.2226
15.8397,1006,3.2452
15.8441,1006,3.2452
15.8484,989,3.1903
15.8527,759,2.4484
15.8570,963,3.1065
15.8613,1005,3.2419
15.8656,1003,3.2355
15.8699,905,2.9194
15.8741,695,2.2419
15.8784,1005,3.2419
15.8827,1002,3.2323
15.8870,999,3.2226
15.8914,787,2.5387
15.8956,762,2.4581
15.8998,1005,3.2419
15.9040,1005,3.2419
15.9083,987,3.1839
15.9125,736,2.3742
15.9167,908,2.9290
15.9209,1003,3.2355
15.9251,1003,3.2355
15.9294,932,3.0065
15.9336,683,2.2032
15.9379,1003,3.2355
15.9421,1003,3.2355
15.9463,1001,3.2290
15.9505,871,2.8097
15.9548,740,2.3871
15.9590,1002,3.2323
15.9632,1003,3.2355
15.9674,998,3.2194
15.9717,772,2.4903
15.9760,814,2.6258
15.9803,1006,3.2452
15.9846,1003,3.2355
15.9889,953,3.0742
15.9933,687,2.2161
15.9976,1000,3.2258
16.0019,1005,3.2419
16.0063,1001,3.2290
16.0106,863,2.7839
16.0194,1007,3.2484
16.0237,1004,3.2387
16.0280,991,3.1968
16.0323,755,2.4355
16.0365,896,2.8903
16.0407,1004,3.2387
16.0450,1003,3.2355
16.0492,936,3.0194
16.0534,719,2.3194
16.0576,1003,3.2355
16.0619,1005,3.2419
16.0662,1003,3.2355
16.0704,884,2.8516
16.0746,761,2.4548
16.0789,1004,3.2387
16.0831,1005,3.2419
16.0873,1000,3.2258
16.0915,824,2.6581
16.0957,839,2.7065
16.1000,1003,3.2355
16.1042,1004,3.2387
16.1084,992,3.2000
16.1126,781,2.5194
16.1169,982,3.1677
16.1211,1005,3.2419
16.1253,1003,3.2355
16.1295,921,2.9710
16.1338,719,2.3194
16.1380,1003,3.2355
16.1422,1004,3.2387
16.1465,1003,3.2355
16.1507,841,2.7129
16.1549,740,2.3871
16.1591,1002,3.2323
16.1634,1005,3.2419
16.1676,994,3.2065
16.1718,757,2.4419
16.1760,826,2.6645
16.1802,1004,3.2387
16.1844,1003,3.2355
16.1886,955,3.0806
16.1928,720,2.3226
16.1971,989,3.1903
16.2013,1005,3.2419
16.2056,1001,3.2290
16.2098,877,2.8290
16.2140,680,2.1935
16.2183,1005,3.2419
16.2225,1004,3.2387
16.2267,1000,3.2258
16.2309,826,2.6645
16.2351,760,2.4516
16.2394,1004,3.2387
16.2437,1004,3.2387
16.2479,987,3.1839
16.2522,731,2.3581
16.2564,879,2.8355
16.2606,1005,3.2419
16.2648,1003,3.2355
16.2691,918,2.9613
16.2734,705,2.2742
16.2777,1002,3.2323
16.2821,1006,3.2452
16.2865,1000,3.2258
16.2909,813,2.6226
16.2952,772,2.4903
16.2995,1002,3.2323
16.3038,1006,3.2452
16.3081,989,3.1903
16.3124,764,2.4645
16.3167,960,3.0968
16.3210,1005,3.2419
16.3253,1001,3.2290
16.3295,905,2.9194
16.3338,707,2.2806
16.3380,1004,3.2387
16.3423,1004,3.2387
16.3465,998,3.2194
16.3508,817,2.6355
16.3550,763,2.4613
16.3592,1007,3.2484
16.3634,1001,3.2290
16.3676,993,3.2032
16.3718,756,2.4387
16.3760,862,2.7806
16.3802,1002,3.2323
16.3845,1005,3.2419
16.3888,962,3.1032
16.3931,725,2.3387
16.3974,1002,3.2323
16.4017,1004,3.2387
16.4061,1000,3.2258
16.4105,824,2.6581
16.4150,731,2.3581
16.4194,1006,3.2452
16.4238,1005,3.2419
16.4282,965,3.1129
16.4330,673,2.1710
16.4375,1001,3.2290
16.4419,1005,3.2419
16.4464,1000,3.2258
16.4509,789,2.5452
16.4553,773,2.4935
16.4597,1004,3.2387
16.4641,1003,3.2355
16.4685,990,3.1935
16.4729,764,2.4645
16.4773,1002,3.2323
16.4817,1004,3.2387
16.4861,1001,3.2290
16.4905,826,2.6645
16.4948,749,2.4161
16.4992,1007,3.2484
16.5035,1004,3.2387
16.5079,953,3.0742
16.5123,685,2.2097
16.5167,953,3.0742
16.5211,1002,3.2323
16.5254,1000,3.2258
16.5298,869,2.8032
16.5341,704,2.2710
16.5385,1003,3.2355
16.5428,1004,3.2387
16.5472,996,3.2129
16.5516,774,2.4968
16.5560,874,2.8194
16.5604,1004,3.2387
16.5648,1001,3.2290
16.5691,896,2.8903
16.5735,661,2.1323
16.5779,1005,3.2419
16.5823,1006,3.2452
16.5867,1000,3.2258
16.5910,807,2.6032
16.5954,814,2.6258
16.5997,1004,3.2387
16.6041,1001,3.2290
16.6084,952,3.0710
16.6132,713,2.3000
16.6203,999,3.2226
16.6246,1003,3.2355
16.6290,938,3.0258
16.6334,698,2.2516
16.6378,1003,3.2355
16.6422,1002,3.2323
16.6465,1000,3.2258
16.6508,829,2.6742
16.6552,816,2.6323
16.6596,1005,3.2419
16.6640,1003,3.2355
16.6684,954,3.0774
16.6728,719,2.3194
16.6772,1004,3.2387
16.6816,1003,3.2355
16.6860,1001,3.2290
16.6903,828,2.6710
16.6947,745,2.4032
16.6991,1004,3.2387
16.7035,1003,3.2355
16.7079,977,3.1516
16.7124,741,2.3903
16.7168,1000,3.2258
16.7212,1005,3.2419
16.7256,1001,3.2290
16.7300,859,2.7710
16.7344,751,2.4226
16.7388,1005,3.2419
16.7432,1003,3.2355
16.7476,987,3.1839
16.7519,759,2.4484
16.7563,960,3.0968
16.7607,1005,3.2419
16.7651,1003,3.2355
16.7695,894,2.8839
16.7739,732,2.3613
16.7783,1004,3.2387
16.7827,1004,3.2387
16.7871,993,3.2032
16.7916,767,2.4742
16.7961,991,3.1968
16.8005,1005,3.2419
16.8049,1003,3.2355
16.8093,977,3.1516
16.8136,798,2.5742
16.8180,1003,3.2355
16.8224,1005,3.2419
16.8268,995,3.2097
16.8312,767,2.4742
16.8356,843,2.7194
16.8399,1006,3.2452
16.8444,1002,3.2323
16.8487,906,2.9226
16.8533,697,2.2484
16.8577,1004,3.2387
16.8621,1002,3.2323
16.8665,999,3.2226
16.8708,790,2.5484
16.8752,807,2.6032
16.8795,1003,3.2355
16.8839,1005,3.2419
16.8884,936,3.0194
16.8927,709,2.2871
16.8971,1003,3.2355
16.9015,1004,3.2387
16.9059,1001,3.2290
16.9104,824,2.6581
16.9149,788,2.5419
16.9206,1002,3.2323
16.9250,1003,3.2355
16.9295,869,2.8032
16.9339,716,2.3097
16.9383,1003,3.2355
16.9426,1002,3.2323
16.9470,992,3.2000
16.9514,739,2.3839
16.9558,863,2.7839
16.9601,1003,3.2355
16.9645,1003,3.2355
16.9688,895,2.8871
16.9732,692,2.2323
16.9775,1001,3.2290
16.9818,1005,3.2419
16.9862,998,3.2194
16.9906,791,2.5516
16.9949,779,2.5129
16.9992,1004,3.2387
17.0036,1002,3.2323
17.0080,941,3.0355
17.0123,696,2.2452
17.0167,998,3.2194
17.0210,1004,3.2387
17.0254,1001,3.2290
17.0297,854,2.7548
17.0341,734,2.3677
17.0384,1005,3.2419
17.0427,1004,3.2387
17.0471,991,3.1968
17.0515,749,2.4161
17.0558,890,2.8710
17.0601,1005,3.2419
17.0645,1003,3.2355
17.0688,890,2.8710
17.0732,688,2.2194
17.0775,1005,3.2419
17.0819,1003,3.2355
17.0863,995,3.2097
17.0906,761,2.4548
17.0949,771,2.4871
17.0992,1003,3.2355
17.1036,1005,3.2419
17.1080,941,3.0355
17.1123,689,2.2226
17.1166,985,3.1774
17.1210,1006,3.2452
17.1254,1002,3.2323
17.1297,829,2.6742
17.1341,743,2.3968
17.1384,1005,3.2419
17.1428,1005,3.2419
17.1472,1000,3.2258
17.1515,840,2.7097
17.1559,879,2.8355
17.1602,1003,3.2355
17.1645,930,3.0000
17.1688,660,2.1290
17.1731,545,1.7581
17.1774,1001,3.2290
17.1816,1004,3.2387
17.1859,998,3.2194
17.1902,774,2.4968
17.1945,717,2.3129
17.1988,1006,3.2452
17.2031,1004,3.2387
17.2074,948,3.0581
17.2116,696,2.2452
17.2158,877,2.8290
17.2200,1005,3.2419
17.2243,1004,3.2387
17.2285,915,2.9516
17.2327,670,2.1613
17.2369,1000,3.2258
17.2411,1003,3.2355
17.2454,1000,3.2258
17.2496,831,2.6806
17.2538,690,2.2258
17.2580,1003,3.2355
17.2622,1005,3.2419
17.2665,997,3.2161
17.2707,776,2.5032
17.2749,800,2.5806
17.2792,1004,3.2387
17.2835,1005,3.2419
17.2878,952,3.0710
17.2922,728,2.3484
17.2965,1003,3.2355
17.3010,1004,3.2387
17.3053,1003,3.2355
17.3096,873,2.8161
17.3138,737,2.3774
17.3180,1005,3.2419
17.3222,1004,3.2387
17.3265,998,3.2194
17.3307,792,2.5548
17.3350,816,2.6323
17.3392,1004,3.2387
17.3435,1000,3.2258
17.3478,959,3.0935
17.3521,708,2.2839
17.3564,1000,3.2258
17.3608,1006,3.2452
17.3651,1002,3.2323
17.3694,882,2.8452
17.3737,721,2.3258
17.3779,1006,3.2452
17.3821,1004,3.2387
17.3864,999,3.2226
17.3907,816,2.6323
17.3950,854,2.7548
17.3993,1004,3.2387
17.4036,1004,3.2387
17.4079,973,3.1387
17.4122,757,2.4419
17.4164,1000,3.2258
17.4206,1005,3.2419
17.4248,1003,3.2355
17.4291,908,2.9290
17.4333,734,2.3677
17.4376,1002,3.2323
17.4418,1004,3.2387
17.4460,998,3.2194
17.4502,793,2.5581
17.4545,759,2.4484
17.4587,1006,3.2452
17.4629,1002,3.2323
17.4672,985,3.1774
17.4714,778,2.5097
17.4757,989,3.1903
17.4799,1004,3.2387
17.4841,1002,3.2323
17.4884,985,3.1774
17.4926,1002,3.2323
17.4969,1006,3.2452
17.5011,1007,3.2484
17.5054,1006,3.2452
17.5097,1005,3.2419
17.5141,1005,3.2419
17.5200,1004,3.2387
17.5243,1004,3.2387
17.5286,1001,3.2290
17.5329,871,2.8097
17.5373,1004,3.2387
17.5416,1005,3.2419
17.5459,998,3.2194
17.5502,795,2.5645
17.5545,778,2.5097
17.5588,1007,3.2484
17.5629,1004,3.2387
17.5672,974,3.1419
17.5714,764,2.4645
17.5756,996,3.2129
17.5798,1005,3.2419
17.5840,1004,3.2387
17.5882,996,3.2129
17.5925,797,2.5710
17.5968,1003,3.2355
17.6010,1006,3.2452
17.6054,1000,3.2258
17.6098,863,2.7839
17.6141,1003,3.2355
17.6185,1006,3.2452
17.6228,1005,3.2419
17.6270,1006,3.2452
17.6314,1002,3.2323
17.6357,1005,3.2419
17.6400,1005,3.2419
17.6443,1004,3.2387
17.6485,996,3.2129
17.6528,829,2.6742
17.6572,1003,3.2355
17.6615,1006,3.2452
17.6657,999,3.2226
17.6699,809,2.6097
17.6741,754,2.4323
17.6783,1007,3.2484
17.6825,1004,3.2387
17.6867,996,3.2129
17.6909,781,2.5194
17.6951,865,2.7903
17.6993,1004,3.2387
17.7035,1003,3.2355
17.7078,960,3.0968
17.7120,709,2.2871
17.7163,1001,3.2290
17.7205,1004,3.2387
17.7247,1002,3.2323
17.7289,903,2.9129
17.7331,730,2.3548
17.7375,1007,3.2484
17.7417,1006,3.2452
17.7459,996,3.2129
17.7502,807,2.6032
17.7545,795,2.5645
17.7588,1005,3.2419
17.7631,1004,3.2387
17.7674,992,3.2000
17.7718,768,2.4774
17.7761,1000,3.2258
17.7804,1005,3.2419
17.7848,1001,3.2290
17.7890,871,2.8097
17.7934,700,2.2581
17.7978,1005,3.2419
17.8021,1002,3.2323
17.8065,989,3.1903
17.8108,758,2.4452
17.8152,894,2.8839
17.8246,1003,3.2355
17.8289,895,2.8871
17.8332,738,2.3806
17.8376,1004,3.2387
17.8419,1003,3.2355
17.8462,999,3.2226
17.8506,849,2.7387
17.8549,1002,3.2323
17.8592,1003,3.2355
17.8635,1005,3.2419
17.8678,1004,3.2387
17.8721,1002,3.2323
17.8764,1005,3.2419
17.8807,1004,3.2387
17.8850,1002,3.2323
17.8892,926,2.9871
17.8935,774,2.4968
17.8978,1006,3.2452
17.9021,1003,3.2355
17.9064,999,3.2226
17.9107,764,2.4645
17.9150,855,2.7581
17.9193,1003,3.2355
17.9236,1002,3.2323
17.9279,952,3.0710
17.9321,717,2.3129
17.9364,1002,3.2323
17.9407,1004,3.2387
17.9450,1003,3.2355
17.9492,876,2.8258
17.9535,996,3.2129
17.9579,1006,3.2452
17.9621,1005,3.2419
17.9664,1007,3.2484
17.9707,1002,3.2323
17.9749,1004,3.2387
17.9792,1006,3.2452
17.9835,1003,3.2355
17.9879,994,3.2065
17.9922,773,2.4935
17.9964,1005,3.2419
18.0010,1005,3.2419
18.0053,1001,3.2290
18.0096,838,2.7032
18.0139,752,2.4258
18.0182,1002,3.2323
18.0225,1005,3.2419
18.0268,981,3.1645
18.0310,702,2.2645
18.0353,888,2.8645
18.0396,1006,3.2452
18.0439,1003,3.2355
18.0482,928,2.9935
18.0524,722,2.3290
18.0567,1005,3.2419
18.0610,1005,3.2419
18.0654,1001,3.2290
18.0697,832,2.6839
18.0740,783,2.5258
18.0782,1002,3.2323
18.0824,1004,3.2387
18.0866,994,3.2065
18.0908,783,2.5258
18.0950,903,2.9129
18.0993,1006,3.2452
18.1035,1004,3.2387
18.1078,942,3.0387
18.1120,729,2.3516
18.1162,1004,3.2387
18.1204,1002,3.2323
18.1247,1002,3.2323
18.1289,883,2.8484
18.1331,1001,3.2290
18.1373,1004,3.2387
18.1416,1005,3.2419
18.1459,1004,3.2387
18.1501,1004,3.2387
18.1543,1001,3.2290
18.1585,1007,3.2484
18.1627,1005,3.2419
18.1670,1000,3.2258
18.1714,842,2.7161
18.1757,1000,3.2258
18.1799,1007,3.2484
18.1842,1003,3.2355
18.1884,890,2.8710
18.1926,687,2.2161
18.1968,1005,3.2419
18.2010,1006,3.2452
18.2052,999,3.2226
18.2095,797,2.5710
18.2137,733,2.3645
18.2180,1005,3.2419
18.2222,1004,3.2387
18.2264,986,3.1806
18.2306,750,2.4194
18.2348,858,2.7677
18.2391,1005,3.2419
18.2434,1003,3.2355
18.2477,927,2.9903
18.2519,664,2.1419
18.2561,996,3.2129
18.2603,1006,3.2452
18.2646,1000,3.2258
18.2688,851,2.7452
18.2731,692,2.2323
18.2773,1004,3.2387
18.2815,1004,3.2387
18.2857,998,3.2194
18.2899,758,2.4452
18.2941,745,2.4032
18.2983,1004,3.2387
18.3025,1006,3.2452
18.3067,983,3.1710
18.3109,754,2.4323
18.3152,931,3.0032
18.3194,1004,3.2387
18.3236,1003,3.2355
18.3278,928,2.9935
18.3320,710,2.2903
18.3362,1004,3.2387
18.3404,1005,3.2419
18.3447,1001,3.2290
18.3489,862,2.7806
18.3532,725,2.3387
18.3574,1004,3.2387
18.3617,1003,3.2355
18.3660,996,3.2129
18.3702,873,2.8161
18.3744,1005,3.2419
18.3786,1006,3.2452
18.3828,1007,3.2484
18.3870,1004,3.2387
18.3912,1002,3.2323
18.3954,1004,3.2387
18.3997,1003,3.2355
18.4039,1002,3.2323
18.4082,999,3.2226
18.4124,854,2.7548
18.4199,1004,3.2387
18.4242,1004,3.2387
18.4285,944,3.0452
18.4328,739,2.3839
18.4370,1004,3.2387
18.4412,1004,3.2387
18.4455,949,3.0613
18.4497,677,2.1839
18.4539,716,2.3097
18.4581,1004,3.2387
18.4624,1005,3.2419
18.4666,983,3.1710
18.4708,730,2.3548
18.4751,912,2.9419
18.4793,1003,3.2355
18.4835,1003,3.2355
18.4877,932,3.0065
18.4920,700,2.2581
18.4962,1002,3.2323
18.5004,1004,3.2387
18.5046,1002,3.2323
18.5089,874,2.8194
18.5131,748,2.4129
18.5173,1003,3.2355
18.5215,1006,3.2452
18.5257,997,3.2161
18.5300,798,2.5742
18.5343,834,2.6903
18.5386,1006,3.2452
18.5429,1002,3.2323
18.5472,949,3.0613
18.5516,706,2.2774
18.5559,1001,3.2290
18.5602,1005,3.2419
18.5645,1003,3.2355
18.5688,855,2.7581
18.5735,748,2.4129
18.5779,1006,3.2452
18.5821,1004,3.2387
18.5864,980,3.1613
18.5908,732,2.3613
18.5952,954,3.0774
18.5995,1004,3.2387
18.6038,1003,3.2355
18.6081,908,2.9290
18.6124,709,2.2871
18.6168,1004,3.2387
18.6211,1005,3.2419
18.6254,998,3.2194
18.6297,792,2.5548
18.6340,796,2.5677
18.6383,1005,3.2419
18.6425,1002,3.2323
18.6468,983,3.1710
18.6510,754,2.4323
18.6554,999,3.2226
18.6597,1007,3.2484
18.6640,1002,3.2323
18.6682,903,2.9129
18.6725,727,2.3452
18.6768,1005,3.2419
18.6811,1005,3.2419
18.6853,998,3.2194
18.6895,788,2.5419
18.6938,770,2.4839
18.6980,1005,3.2419
18.7022,1004,3.2387
18.7064,983,3.1710
18.7106,728,2.3484
18.7149,900,2.9032
18.7201,1003,3.2355
18.7244,1000,3.2258
18.7287,833,2.6871
18.7330,693,2.2355
18.7372,1007,3.2484
18.7415,1004,3.2387
18.7458,988,3.1871
18.7500,751,2.4226
18.7543,844,2.7226
18.7587,1004,3.2387
18.7630,1000,3.2258
18.7673,938,3.0258
18.7716,714,2.3032
18.7758,1000,3.2258
18.7801,1003,3.2355
18.7844,1002,3.2323
18.7887,845,2.7258
18.7930,729,2.3516
18.7973,1002,3.2323
18.8016,1004,3.2387
18.8059,985,3.1774
18.8101,728,2.3484
18.8144,837,2.7000
18.8187,1005,3.2419
18.8230,1003,3.2355
18.8272,939,3.0290
18.8314,690,2.2258
18.8356,999,3.2226
18.8399,1004,3.2387
18.8441,1003,3.2355
18.8483,886,2.8581
18.8525,728,2.3484
18.8568,1005,3.2419
18.8610,1003,3.2355
18.8652,1000,3.2258
18.8695,803,2.5903
18.8737,777,2.5065
18.8779,1003,3.2355
18.8823,1004,3.2387
18.8866,976,3.1484
18.8908,918,2.9613
18.8951,1005,3.2419
18.8993,1004,3.2387
18.9035,1007,3.2484
18.9078,1004,3.2387
18.9120,1005,3.2419
18.9162,1004,3.2387
18.9205,1007,3.2484
18.9247,1006,3.2452
18.9289,1006,3.2452
18.9332,1003,3.2355
18.9374,1005,3.2419
18.9417,1004,3.2387
18.9459,1002,3.2323
18.9502,936,3.0194
18.9544,981,3.1645
18.9587,1004,3.2387
18.9629,1002,3.2323
18.9671,941,3.0355
18.9713,679,2.1903
18.9755,999,3.2226
18.9798,1003,3.2355
18.9841,1002,3.2323
18.9883,853,2.7516
18.9925,674,2.1742
18.9968,1005,3.2419
19.0011,1004,3.2387
19.0055,997,3.2161
19.0098,766,2.4710
19.0141,836,2.6968
19.0184,1005,3.2419
19.0228,1003,3.2355
19.0271,922,2.9742
19.0314,687,2.2161
19.0358,1005,3.2419
19.0401,1004,3.2387
19.0446,1000,3.2258
19.0490,842,2.7161
19.0533,794,2.5613
19.0576,1004,3.2387
19.0619,1004,3.2387
19.0663,999,3.2226
19.0707,799,2.5774
19.0750,930,3.0000
19.0793,1003,3.2355
19.0836,998,3.2194
19.0878,776,2.5032
19.0921,619,1.9968
19.0964,1002,3.2323
19.1007,1003,3.2355
19.1050,999,3.2226
19.1093,785,2.5323
19.1136,776,2.5032
19.1179,1006,3.2452
19.1222,1003,3.2355
19.1267,958,3.0903
19.1311,695,2.2419
19.1356,1001,3.2290
19.1400,1005,3.2419
19.1444,1000,3.2258
19.1488,827,2.6677
19.1533,768,2.4774
19.1578,1005,3.2419
19.1622,1003,3.2355
19.1667,955,3.0806
19.1712,733,2.3645
19.1756,1003,3.2355
19.1800,1003,3.2355
19.1844,1003,3.2355
19.1888,876,2.8258
19.1931,794,2.5613
19.1975,1004,3.2387
19.2019,1004,3.2387
19.2063,986,3.1806
19.2107,715,2.3065
19.2150,980,3.1613
19.2194,1004,3.2387
19.2238,1001,3.2290
19.2282,880,2.8387
19.2325,705,2.2742
19.2369,1004,3.2387
19.2413,1004,3.2387
19.2456,996,3.2129
19.2500,747,2.4097
19.2544,893,2.8806
19.2588,1005,3.2419
19.2631,1002,3.2323
19.2675,934,3.0129
19.2719,837,2.7000
19.2763,1002,3.2323
19.2807,1007,3.2484
19.2850,1005,3.2419
19.2894,1000,3.2258
19.2938,1007,3.2484
19.2982,1006,3.2452
19.3026,1006,3.2452
19.3070,1005,3.2419
19.3114,1000,3.2258
19.3157,1005,3.2419
19.3255,1003,3.2355
19.3299,886,2.8581
19.3343,976,3.1484
19.3387,1004,3.2387
19.3430,1000,3.2258
19.3475,930,3.0000
19.3519,699,2.2548
19.3563,1006,3.2452
19.3606,1006,3.2452
19.3650,998,3.2194
19.3694,779,2.5129
19.3737,812,2.6194
19.3781,1005,3.2419
19.3825,1002,3.2323
19.3869,945,3.0484
19.3913,715,2.3065
19.3957,1002,3.2323
19.4000,1001,3.2290
19.4044,1000,3.2258
19.4088,832,2.6839
19.4132,782,2.5226
19.4176,1003,3.2355
19.4219,1004,3.2387
19.4263,966,3.1161
19.4306,706,2.2774
19.4350,996,3.2129
19.4394,1003,3.2355
19.4439,1002,3.2323
19.4482,851,2.7452
19.4526,740,2.3871
19.4570,1003,3.2355
19.4614,1004,3.2387
19.4659,983,3.1710
19.4703,737,2.3774
19.4747,976,3.1484
19.4792,1004,3.2387
19.4836,1002,3.2323
19.4879,865,2.7903
19.4923,721,2.3258
19.4967,1004,3.2387
19.5010,1006,3.2452
19.5054,993,3.2032
19.5098,745,2.4032
19.5142,889,2.8677
19.5186,1004,3.2387
19.5230,1003,3.2355
19.5273,883,2.8484
19.5317,685,2.2097
19.5361,1005,3.2419
19.5405,1002,3.2323
19.5449,997,3.2161
19.5492,773,2.4935
19.5536,828,2.6710
19.5580,1006,3.2452
19.5624,1002,3.2323
19.5668,924,2.9806
19.5712,678,2.1871
19.5756,1003,3.2355
19.5800,1004,3.2387
19.5844,1001,3.2290
19.5888,809,2.6097
19.5932,795,2.5645
19.5976,1006,3.2452
19.6020,1004,3.2387
19.6064,936,3.0194
19.6107,706,2.2774
19.6151,1001,3.2290
19.6214,1005,3.2419
19.6258,976,3.1484
19.6301,740,2.3871
19.6345,969,3.1258
19.6389,1004,3.2387
19.6434,1002,3.2323
19.6478,856,2.7613
19.6522,720,2.3226
19.6566,1004,3.2387
19.6609,1001,3.2290
19.6653,988,3.1871
19.6697,734,2.3677
19.6740,882,2.8452
19.6784,1004,3.2387
19.6828,1001,3.2290
19.6872,885,2.8548
19.6916,705,2.2742
19.6961,1004,3.2387
19.7005,1003,3.2355
19.7049,1002,3.2323
19.7093,877,2.8290
19.7137,881,2.8419
19.7180,1005,3.2419
19.7225,940,3.0323
19.7270,663,2.1387
19.7314,545,1.7581
19.7357,1003,3.2355
19.7401,1005,3.2419
19.7445,998,3.2194
19.7488,773,2.4935
19.7532,775,2.5000
19.7575,1005,3.2419
19.7619,1003,3.2355
19.7662,922,2.9742
19.7706,653,2.1065
19.7749,995,3.2097
19.7792,1002,3.2323
19.7836,1002,3.2323
19.7879,840,2.7097
19.7923,730,2.3548
19.7966,1004,3.2387
19.8010,1006,3.2452
19.8056,977,3.1516
19.8100,714,2.3032
19.8143,957,3.0871
19.8187,1005,3.2419
19.8231,1004,3.2387
19.8274,895,2.8871
19.8318,712,2.2968
19.8361,1005,3.2419
19.8405,1002,3.2323
19.8448,998,3.2194
19.8492,797,2.5710
19.8535,870,2.8065
19.8579,1003,3.2355
19.8622,1003,3.2355
19.8666,936,3.0194
19.8709,691,2.2290
19.8752,1002,3.2323
19.8796,1005,3.2419
19.8839,1002,3.2323
19.8883,809,2.6097
19.8926,729,2.3516
19.8970,1005,3.2419
19.9014,1002,3.2323
19.9060,952,3.0710
19.9106,666,2.1484
19.9150,1002,3.2323
19.9193,1004,3.2387
19.9237,1000,3.2258
19.9280,829,2.6742
19.9324,747,2.4097
19.9367,1005,3.2419
19.9411,1005,3.2419
19.9455,983,3.1710
19.9498,720,2.3226
19.9542,944,3.0452
19.9585,1006,3.2452
19.9630,1001,3.2290
19.9673,889,2.8677
19.9716,1001,3.2290
19.9760,1006,3.2452
19.9803,1004,3.2387
19.9846,1006,3.2452
19.9890,1004,3.2387
19.9934,1001,3.2290
19.9977,1005,3.2419
20.0020,1004,3.2387
20.0063,1000,3.2258
20.0110,843,2.7194
20.0285,801,2.5839
20.0345,992,3.2000
20.0389,1005,3.2419
20.0432,1001,3.2290
20.0475,840,2.7097
20.0517,701,2.2613
20.0560,1005,3.2419
20.0602,1005,3.2419
20.0645,995,3.2097
20.0689,758,2.4452
20.0733,824,2.6581
20.0777,1004,3.2387
20.0819,1002,3.2323
20.0862,919,2.9645
20.0905,704,2.2710
20.0948,1000,3.2258
20.0992,1003,3.2355
20.1035,1001,3.2290
20.1078,824,2.6581
20.1121,726,2.3419
20.1164,1005,3.2419
20.1207,1001,3.2290
20.1250,985,3.1774
20.1293,739,2.3839
20.1336,870,2.8065
20.1379,1005,3.2419
20.1422,1003,3.2355
20.1465,896,2.8903
20.1508,656,2.1161
20.1551,1002,3.2323
20.1594,1004,3.2387
20.1636,1000,3.2258
20.1679,804,2.5935
20.1722,729,2.3516
20.1765,1005,3.2419
20.1807,1005,3.2419
20.1849,988,3.1871
20.1892,747,2.4097
20.1934,852,2.7484
20.1976,1005,3.2419
20.2018,1000,3.2258
20.2060,920,2.9677
20.2103,694,2.2387
20.2145,1001,3.2290
20.2208,1005,3.2419
20.2251,974,3.1419
20.2294,730,2.3548
20.2336,893,2.8806
20.2378,1003,3.2355
20.2420,1003,3.2355
20.2463,940,3.0323
20.2506,686,2.2129
20.2549,1003,3.2355
20.2592,1004,3.2387
20.2634,1000,3.2258
20.2677,813,2.6226
20.2719,693,2.2355
20.2761,1004,3.2387
20.2804,1004,3.2387
20.2846,986,3.1806
20.2888,743,2.3968
20.2930,796,2.5677
20.2972,1005,3.2419
20.3014,1002,3.2323
20.3059,925,2.9839
20.3102,695,2.2419
20.3144,998,3.2194
20.3186,1004,3.2387
20.3228,1003,3.2355
20.3271,879,2.8355
20.3313,722,2.3290
20.3355,1004,3.2387
20.3397,1002,3.2323
20.3440,1002,3.2323
20.3483,864,2.7871
20.3525,789,2.5452
20.3567,1004,3.2387
20.3609,1002,3.2323
20.3651,899,2.9000
20.3693,656,2.1161
20.3736,876,2.8258
20.3778,1004,3.2387
20.3820,1002,3.2323
20.3863,913,2.9452
20.3905,699,2.2548
20.3947,1003,3.2355
20.3989,1004,3.2387
20.4032,1002,3.2323
20.4075,845,2.7258
20.4118,730,2.3548
20.4161,1004,3.2387
20.4203,1004,3.2387
20.4245,996,3.2129
20.4288,760,2.4516
20.4330,823,2.6548
20.4372,1005,3.2419
20.4414,1004,3.2387
20.4456,937,3.0226
20.4499,697,2.2484
20.4541,974,3.1419
20.4583,1004,3.2387
20.4625,1000,3.2258
20.4667,876,2.8258
20.4709,696,2.2452
20.4751,1005,3.2419
20.4794,1003,3.2355
20.4836,999,3.2226
20.4878,823,2.6548
20.4920,751,2.4226
20.4963,1004,3.2387
20.5005,1006,3.2452
20.5047,989,3.1903
20.5090,739,2.3839
20.5142,1001,3.2290
20.5207,1003,3.2355
20.5250,979,3.1581
20.5295,714,2.3032
20.5338,963,3.1065
20.5381,1006,3.2452
20.5423,1000,3.2258
20.5466,899,2.9000
20.5508,697,2.2484
20.5552,1001,3.2290
20.5595,1004,3.2387
20.5639,999,3.2226
20.5682,785,2.5323
20.5726,796,2.5677
20.5770,1005,3.2419
20.5813,1002,3.2323
20.5857,961,3.1000
20.5899,710,2.2903
20.5942,1000,3.2258
20.5985,1004,3.2387
20.6028,1003,3.2355
20.6071,883,2.8484
20.6113,717,2.3129
20.6155,1004,3.2387
20.6197,1004,3.2387
20.6239,999,3.2226
20.6281,799,2.5774
20.6324,787,2.5387
20.6366,1004,3.2387
20.6408,1005,3.2419
20.6450,971,3.1323
20.6493,732,2.3613
20.6535,932,3.0065
20.6578,1004,3.2387
20.6620,1004,3.2387
20.6663,898,2.8968
20.6705,670,2.1613
20.6748,1001,3.2290
20.6791,1005,3.2419
20.6835,999,3.2226
20.6878,785,2.5323
20.6921,739,2.3839
20.6964,1004,3.2387
20.7007,1001,3.2290
20.7050,952,3.0710
20.7094,712,2.2968
20.7137,964,3.1097
20.7180,1006,3.2452
20.7224,1001,3.2290
20.7267,880,2.8387
20.7310,709,2.2871
20.7353,1004,3.2387
20.7397,1004,3.2387
20.7441,994,3.2065
20.7484,775,2.5000
20.7527,842,2.7161
20.7570,1004,3.2387
20.7614,1004,3.2387
20.7657,941,3.0355
20.7700,692,2.2323
20.7743,1003,3.2355
20.7786,1004,3.2387
20.7829,1001,3.2290
20.7872,855,2.7581
20.7916,748,2.4129
20.7959,1005,3.2419
20.8002,1002,3.2323
20.8045,986,3.1806
20.8089,743,2.3968
20.8131,888,2.8645
20.8174,1004,3.2387
20.8217,1003,3.2355
20.8260,906,2.9226
20.8302,1000,3.2258
20.8345,1004,3.2387
20.8388,1007,3.2484
20.8431,1007,3.2484
20.8474,1004,3.2387
20.8517,1004,3.2387
20.8559,1004,3.2387
20.8602,1007,3.2484
20.8646,1003,3.2355
20.8689,950,3.0645
20.8732,1002,3.2323
20.8775,1004,3.2387
20.8818,1004,3.2387
20.8861,917,2.9581
20.8904,714,2.3032
20.8946,1005,3.2419
20.8989,1005,3.2419
20.9032,1000,3.2258
20.9075,830,2.6774
20.9118,775,2.5000
20.9161,1005,3.2419
20.9204,1004,3.2387
20.9246,992,3.2000
20.9289,761,2.4548
20.9333,947,3.0548
20.9376,1005,3.2419
20.9420,1003,3.2355
20.9462,906,2.9226
20.9506,708,2.2839
20.9549,1002,3.2323
20.9593,1004,3.2387
20.9636,1001,3.2290
20.9679,841,2.7129
20.9722,837,2.7000
20.9765,1006,3.2452
20.9808,1005,3.2419
20.9851,982,3.1677
20.9894,742,2.3935
20.9938,993,3.2032
20.9980,1004,3.2387
21.0023,1001,3.2290
21.0066,836,2.6968
21.0110,689,2.2226
21.0153,1004,3.2387
21.0196,1003,3.2355
21.0239,994,3.2065
21.0282,791,2.5516
21.0325,946,3.0516
21.0367,1006,3.2452
21.0411,1005,3.2419
21.0454,1001,3.2290
21.0497,835,2.6935
21.0539,1004,3.2387
21.0582,1003,3.2355
21.0625,1000,3.2258
21.0668,872,2.8129
21.0711,729,2.3516
21.0754,1004,3.2387
21.0796,1003,3.2355
21.0839,996,3.2129
21.0881,754,2.4323
21.0923,798,2.5742
21.0965,1004,3.2387
21.1007,1002,3.2323
21.1049,966,3.1161
21.1092,714,2.3032
21.1138,1002,3.2323
21.1209,1003,3.2355
21.1252,968,3.1226
21.1295,741,2.3903
21.1338,1002,3.2323
21.1381,1004,3.2387
21.1424,1002,3.2323
21.1466,885,2.8548
21.1509,736,2.3742
21.1551,1002,3.2323
21.1594,1006,3.2452
21.1636,999,3.2226
21.1679,811,2.6161
21.1721,831,2.6806
21.1763,1006,3.2452
21.1805,1004,3.2387
21.1848,987,3.1839
21.1890,918,2.9613
21.1933,1005,3.2419
21.1975,1004,3.2387
21.2017,1004,3.2387
21.2059,1006,3.2452
21.2102,1002,3.2323
21.2144,1004,3.2387
21.2186,1006,3.2452
21.2228,1004,3.2387
21.2270,966,3.1161
21.2312,850,2.7419
21.2355,1002,3.2323
21.2397,1004,3.2387
21.2439,999,3.2226
21.2481,777,2.5065
21.2524,829,2.6742
21.2567,1004,3.2387
21.2609,1003,3.2355
21.2651,946,3.0516
21.2694,682,2.2000
21.2736,989,3.1903
21.2778,1002,3.2323
21.2820,1003,3.2355
21.2863,870,2.8065
21.2905,690,2.2258
21.2947,1004,3.2387
21.2989,1005,3.2419
21.3031,999,3.2226
21.3074,811,2.6161
21.3116,778,2.5097
21.3159,1005,3.2419
21.3201,1004,3.2387
21.3243,990,3.1935
21.3286,749,2.4161
21.3328,903,2.9129
21.3371,1004,3.2387
21.3413,1002,3.2323
21.3456,910,2.9355
21.3499,690,2.2258
21.3542,1002,3.2323
21.3584,1005,3.2419
21.3626,1000,3.2258
21.3669,824,2.6581
21.3711,702,2.2645
21.3753,1003,3.2355
21.3795,1001,3.2290
21.3838,994,3.2065
21.3880,738,2.3806
21.3923,816,2.6323
21.3965,1004,3.2387
21.4010,1002,3.2323
21.4052,933,3.0097
21.4094,672,2.1677
21.4145,1001,3.2290
21.4208,1004,3.2387
21.4251,952,3.0710
21.4296,689,2.2226
21.4339,1004,3.2387
21.4382,1004,3.2387
21.4424,1002,3.2323
21.4466,860,2.7742
21.4509,720,2.3226
21.4551,1005,3.2419
21.4594,1002,3.2323
21.4635,997,3.2161
21.4677,768,2.4774
21.4720,803,2.5903
21.4762,1005,3.2419
21.4804,1004,3.2387
21.4847,962,3.1032
21.4890,696,2.2452
21.4933,974,3.1419
21.4975,1002,3.2323
21.5018,1000,3.2258
21.5060,893,2.8806
21.5103,709,2.2871
21.5146,1003,3.2355
21.5188,1002,3.2323
21.5229,999,3.2226
21.5272,795,2.5645
21.5315,770,2.4839
21.5358,1006,3.2452
21.5400,1004,3.2387
21.5442,988,3.1871
21.5484,754,2.4323
21.5527,920,2.9677
21.5569,1004,3.2387
21.5611,1002,3.2323
21.5653,931,3.0032
21.5696,720,2.3226
21.5738,1003,3.2355
21.5781,1004,3.2387
21.5824,1001,3.2290
21.5867,846,2.7290
21.5910,758,2.4452
21.5954,1004,3.2387
21.5997,1004,3.2387
21.6041,992,3.2000
21.6085,768,2.4774
21.6129,993,3.2032
21.6172,1005,3.2419
21.6215,1002,3.2323
21.6258,973,3.1387
21.6300,717,2.3129
21.6343,1001,3.2290
21.6386,1004,3.2387
21.6429,920,2.9677
21.6505,626,2.0194
21.6548,1005,3.2419
21.6591,1004,3.2387
21.6634,995,3.2097
21.6677,745,2.4032
21.6720,819,2.6419
21.6763,1005,3.2419
21.6806,1004,3.2387
21.6848,964,3.1097
21.6891,707,2.2806
21.6933,1001,3.2290
21.6975,1004,3.2387
21.7018,1001,3.2290
21.7060,901,2.9065
21.7102,737,2.3774
21.7145,1005,3.2419
21.7187,1003,3.2355
21.7229,999,3.2226
21.7272,793,2.5581
21.7314,771,2.4871
21.7356,1003,3.2355
21.7399,1002,3.2323
21.7441,986,3.1806
21.7484,743,2.3968
21.7528,961,3.1000
21.7570,1005,3.2419
21.7613,1002,3.2323
21.7655,903,2.9129
21.7698,662,2.1355
21.7740,1002,3.2323
21.7782,1005,3.2419
21.7825,1002,3.2323
21.7868,836,2.6968
21.7910,750,2.4194
21.7952,1002,3.2323
21.7994,1003,3.2355
21.8037,989,3.1903
21.8080,713,2.3000
21.8123,866,2.7935
21.8166,1005,3.2419
21.8210,1005,3.2419
21.8253,913,2.9452
21.8297,674,2.1742
21.8339,1003,3.2355
21.8382,1000,3.2258
21.8425,1000,3.2258
21.8468,831,2.6806
21.8511,783,2.5258
21.8554,1005,3.2419
21.8597,1005,3.2419
21.8639,997,3.2161
21.8682,791,2.5516
21.8724,950,3.0645
21.8766,1004,3.2387
21.8808,1003,3.2355
21.8851,960,3.0968
21.8894,723,2.3323
21.8936,1004,3.2387
21.8978,1004,3.2387
21.9020,1003,3.2355
21.9063,880,2.8387
21.9106,755,2.4355
21.9149,1006,3.2452
21.9192,1002,3.2323
21.9235,996,3.2129
21.9278,775,2.5000
21.9322,911,2.9387
21.9366,1004,3.2387
21.9409,1003,3.2355
21.9452,930,3.0000
21.9494,687,2.2161
21.9537,1002,3.2323
21.9580,1005,3.2419
21.9623,1000,3.2258
21.9666,820,2.6452
21.9709,736,2.3742
21.9751,1003,3.2355
21.9794,1004,3.2387
21.9837,992,3.2000
21.9879,773,2.4935
21.9922,915,2.9516
21.9964,1007,3.2484
22.0009,1002,3.2323
22.0051,935,3.0161
22.0093,752,2.4258
22.0135,1004,3.2387
22.0211,1004,3.2387
22.0254,990,3.1935
22.0296,713,2.3000
22.0339,1004,3.2387
22.0381,1005,3.2419
22.0424,1001,3.2290
22.0467,778,2.5097
22.0510,693,2.2355
22.0553,1003,3.2355
22.0596,1003,3.2355
22.0639,988,3.1871
22.0682,686,2.2129
22.0724,890,2.8710
22.0766,1005,3.2419
22.0809,1002,3.2323
22.0852,931,3.0032
22.0894,805,2.5968
22.0937,1006,3.2452
22.0980,1006,3.2452
22.1023,1004,3.2387
22.1066,972,3.1355
22.1109,881,2.8419
22.1152,1006,3.2452
22.1195,1004,3.2387
22.1238,994,3.2065
22.1281,786,2.5355
22.1324,997,3.2161
22.1367,1004,3.2387
22.1409,1006,3.2452
22.1452,949,3.0613
22.1496,846,2.7290
22.1539,1005,3.2419
22.1582,1004,3.2387
22.1625,1004,3.2387
22.1668,1001,3.2290
22.1710,1005,3.2419
22.1753,1006,3.2452
22.1795,1007,3.2484
22.1838,1005,3.2419
22.1882,969,3.1258
22.1924,1001,3.2290
22.1967,1004,3.2387
22.2010,1000,3.2258
22.2053,907,2.9258
22.2096,792,2.5548
22.2139,1006,3.2452
22.2181,1004,3.2387
22.2224,1004,3.2387
22.2266,1002,3.2323
22.2309,998,3.2194
22.2352,1005,3.2419
22.2394,1003,3.2355
22.2437,999,3.2226
22.2480,826,2.6645
22.2523,1003,3.2355
22.2566,1004,3.2387
22.2608,1005,3.2419
22.2651,1003,3.2355
22.2694,959,3.0935
22.2736,1006,3.2452
22.2778,1003,3.2355
22.2821,1004,3.2387
22.2863,1000,3.2258
22.2906,870,2.8065
22.2948,1005,3.2419
22.2990,999,3.2226
22.3033,753,2.4290
22.3075,516,1.6645
22.3118,761,2.4548
22.3160,1005,3.2419
22.3211,1000,3.2258
22.3254,900,2.9032
22.3297,1003,3.2355
22.3340,1006,3.2452
22.3383,1005,3.2419
22.3426,1004,3.2387
22.3469,1006,3.2452
22.3512,1004,3.2387
22.3555,1005,3.2419
22.3598,1007,3.2484
22.3641,1003,3.2355
22.3683,848,2.7355
22.3727,933,3.0097
22.3770,1003,3.2355
22.3813,926,2.9871
22.3856,647,2.0871
22.3899,667,2.1516
22.3943,1006,3.2452
22.3986,1006,3.2452
22.4029,1004,3.2387
22.4072,923,2.9774
22.4116,958,3.0903
22.4159,1006,3.2452
22.4202,1005,3.2419
22.4244,971,3.1323
22.4287,905,2.9194
22.4330,1006,3.2452
22.4373,1005,3.2419
22.4416,1004,3.2387
22.4459,1005,3.2419
22.4502,1005,3.2419
22.4545,1004,3.2387
22.4588,1004,3.2387
22.4630,1001,3.2290
22.4672,830,2.6774
22.4714,909,2.9323
22.4756,1005,3.2419
22.4798,1003,3.2355
22.4840,996,3.2129
22.4882,755,2.4355
22.4924,992,3.2000
22.4967,1005,3.2419
22.5011,1002,3.2323
22.5054,892,2.8774
22.5096,935,3.0161
22.5138,1006,3.2452
22.5181,1006,3.2452
22.5224,1004,3.2387
22.5268,1004,3.2387
22.5311,1006,3.2452
22.5355,1005,3.2419
22.5398,1004,3.2387
22.5442,999,3.2226
22.5487,877,2.8290
22.5531,1005,3.2419
22.5575,1004,3.2387
22.5619,1002,3.2323
22.5664,992,3.2000
22.5708,1004,3.2387
22.5753,1004,3.2387
22.5797,1005,3.2419
22.5841,1006,3.2452
22.5886,1005,3.2419
22.5930,1005,3.2419
22.5975,1004,3.2387
22.6020,1006,3.2452
22.6064,1003,3.2355
22.6110,1005,3.2419
22.6154,1005,3.2419
22.6198,1007,3.2484
22.6243,1000,3.2258
22.6287,1003,3.2355
22.6332,1006,3.2452
22.6376,1004,3.2387
22.6420,1004,3.2387
22.6464,1004,3.2387
22.6508,1003,3.2355
22.6551,1003,3.2355
22.6595,1004,3.2387
22.6639,1002,3.2323
22.6683,963,3.1065
22.6727,1006,3.2452
22.6770,1005,3.2419
22.6814,1006,3.2452
22.6858,1000,3.2258
22.6901,1006,3.2452
22.6944,1007,3.2484
22.6988,1006,3.2452
22.7033,1007,3.2484
22.7077,1004,3.2387
22.7121,1007,3.2484
22.7164,1005,3.2419
22.7208,1004,3.2387
22.7252,1006,3.2452
22.7296,1005,3.2419
22.7340,1006,3.2452
22.7383,1004,3.2387
22.7427,1008,3.2516
22.7471,1007,3.2484
22.7514,1004,3.2387
22.7558,1006,3.2452
22.7602,1006,3.2452
22.7646,1004,3.2387
22.7690,1000,3.2258
22.7734,1004,3.2387
22.7778,1006,3.2452
22.7822,1002,3.2323
22.7865,835,2.6935
22.7909,871,2.8097
22.7952,1004,3.2387
22.7995,1004,3.2387
22.8039,939,3.0290
22.8083,698,2.2516
22.8127,1002,3.2323
22.8171,1004,3.2387
22.8215,1000,3.2258
22.8259,852,2.7484
22.8302,1004,3.2387
22.8346,1006,3.2452
22.8390,1007,3.2484
22.8434,1004,3.2387
22.8478,1005,3.2419
22.8522,1004,3.2387
22.8566,1004,3.2387
22.8609,1004,3.2387
22.8653,1001,3.2290
22.8696,962,3.1032
22.8740,1005,3.2419
22.8784,1004,3.2387
22.8827,998,3.2194
22.8871,785,2.5323
22.8915,983,3.1710
22.8959,1004,3.2387
22.9003,1005,3.2419
22.9047,942,3.0387
22.9092,941,3.0355
22.9136,1007,3.2484
22.9224,1000,3.2258
22.9268,1001,3.2290
22.9312,1003,3.2355
22.9356,1005,3.2419
22.9400,1002,3.2323
22.9444,952,3.0710
22.9488,608,1.9613
22.9532,984,3.1742
22.9576,1001,3.2290
22.9620,785,2.5323
22.9664,601,1.9387
22.9708,1005,3.2419
22.9752,1007,3.2484
22.9796,1007,3.2484
22.9839,1004,3.2387
22.9883,1006,3.2452
22.9926,1007,3.2484
22.9970,1005,3.2419
23.0015,1004,3.2387
23.0059,1003,3.2355
23.0102,1005,3.2419
23.0146,1004,3.2387
23.0190,1007,3.2484
23.0234,1005,3.2419
23.0278,1005,3.2419
23.0322,1006,3.2452
23.0367,1006,3.2452
23.0410,1006,3.2452
23.0454,1001,3.2290
23.0497,1006,3.2452
23.0541,1004,3.2387
23.0585,1005,3.2419
23.0629,1005,3.2419
23.0672,1005,3.2419
23.0716,1005,3.2419
23.0760,1007,3.2484
23.0804,1004,3.2387
23.0848,998,3.2194
23.0892,968,3.1226
23.0935,1005,3.2419
23.0979,1003,3.2355
23.1022,1001,3.2290
23.1066,923,2.9774
23.1109,998,3.2194
23.1153,1005,3.2419
23.1197,1004,3.2387
23.1241,945,3.0484
23.1284,704,2.2710
23.1328,1004,3.2387
23.1373,1004,3.2387
23.1417,1001,3.2290
23.1461,816,2.6323
23.1505,865,2.7903
23.1548,1005,3.2419
23.1592,1003,3.2355
23.1636,949,3.0613
23.1679,682,2.2000
23.1724,1003,3.2355
23.1769,1004,3.2387
23.1813,1000,3.2258
23.1857,883,2.8484
23.1901,1004,3.2387
23.1945,1005,3.2419
23.1988,1005,3.2419
23.2033,1007,3.2484
23.2077,1005,3.2419
23.2121,1007,3.2484
23.2165,1005,3.2419
23.2227,1019,3.2871
23.2271,1004,3.2387
23.2314,992,3.2000
23.2358,1004,3.2387
23.2402,1004,3.2387
23.2445,1006,3.2452
23.2489,1005,3.2419
23.2533,1002,3.2323
23.2577,1006,3.2452
23.2620,1006,3.2452
23.2664,1000,3.2258
23.2707,1004,3.2387
23.2750,1005,3.2419
23.2794,1005,3.2419
23.2838,983,3.1710
23.2881,770,2.4839
23.2924,1005,3.2419
23.2968,1006,3.2452
23.3011,1002,3.2323
23.3058,817,2.6355
23.3101,845,2.7258
23.3145,1003,3.2355
23.3189,1004,3.2387
23.3233,968,3.1226
23.3276,697,2.2484
23.3319,1002,3.2323
23.3363,1002,3.2323
23.3406,1002,3.2323
23.3450,850,2.7419
23.3494,743,2.3968
23.3537,1005,3.2419
23.3581,1002,3.2323
23.3624,995,3.2097
23.3668,761,2.4548
23.3711,982,3.1677
23.3755,1006,3.2452
23.3801,1002,3.2323
23.3844,900,2.9032
23.3888,707,2.2806
23.3931,1005,3.2419
23.3975,1003,3.2355
23.4019,998,3.2194
23.4062,821,2.6484
23.4106,1004,3.2387
23.4149,1006,3.2452
23.4192,1005,3.2419
23.4236,1005,3.2419
23.4279,957,3.0871
23.4323,1002,3.2323
23.4366,1006,3.2452
23.4410,1001,3.2290
23.4453,891,2.8742
23.4497,1003,3.2355
23.4541,1006,3.2452
23.4584,1005,3.2419
23.4628,1006,3.2452
23.4671,999,3.2226
23.4715,1005,3.2419
23.4758,1005,3.2419
23.4801,1000,3.2258
23.4845,844,2.7226
23.4888,704,2.2710
23.4932,1005,3.2419
23.4975,1005,3.2419
23.5018,996,3.2129
23.5062,771,2.4871
23.5105,902,2.9097
23.5149,1004,3.2387
23.5192,1003,3.2355
23.5236,943,3.0419
23.5279,826,2.6645
23.5323,1004,3.2387
23.5366,1006,3.2452
23.5409,1004,3.2387
23.5451,1002,3.2323
23.5494,1003,3.2355
23.5536,1004,3.2387
23.5579,1005,3.2419
23.5622,1005,3.2419
23.5665,999,3.2226
23.5707,1003,3.2355
23.5750,1006,3.2452
23.5792,1001,3.2290
23.5835,858,2.7677
23.5877,612,1.9742
23.5919,1002,3.2323
23.5961,1003,3.2355
23.6003,1000,3.2258
23.6046,854,2.7548
23.6088,699,2.2548
23.6130,1005,3.2419
23.6172,1005,3.2419
23.6214,999,3.2226
23.6257,787,2.5387
23.6299,820,2.6452
23.6341,1006,3.2452
23.6385,1004,3.2387
23.6428,977,3.1516
23.6471,708,2.2839
23.6515,1001,3.2290
23.6558,1005,3.2419
23.6602,1002,3.2323
23.6645,883,2.8484
23.6688,725,2.3387
23.6732,1005,3.2419
23.6775,1004,3.2387
23.6818,997,3.2161
23.6861,761,2.4548
23.6904,896,2.8903
23.6946,1006,3.2452
23.6989,1002,3.2323
23.7033,954,3.0774
23.7076,724,2.3355
23.7120,1004,3.2387
23.7163,1005,3.2419
23.7205,1002,3.2323
23.7248,862,2.7806
23.7292,779,2.5129
23.7335,1004,3.2387
23.7377,1004,3.2387
23.7419,997,3.2161
23.7461,758,2.4452
23.7503,896,2.8903
23.7546,1005,3.2419
23.7588,1002,3.2323
23.7630,960,3.0968
23.7673,711,2.2935
23.7715,1000,3.2258
23.7757,1005,3.2419
23.7799,1003,3.2355
23.7841,897,2.8935
23.7885,923,2.9774
23.7927,1007,3.2484
23.7971,1007,3.2484
23.8014,1004,3.2387
23.8057,1003,3.2355
23.8100,1004,3.2387
23.8142,1007,3.2484
23.8220,1001,3.2290
23.8265,823,2.6548
23.8308,1005,3.2419
23.8350,1004,3.2387
23.8393,1004,3.2387
23.8435,996,3.2129
23.8478,728,2.3484
23.8521,1005,3.2419
23.8564,1004,3.2387
23.8606,1003,3.2355
23.8649,893,2.8806
23.8692,824,2.6581
23.8734,1006,3.2452
23.8775,1004,3.2387
23.8817,996,3.2129
23.8859,784,2.5290
23.8902,910,2.9355
23.8944,1004,3.2387
23.8986,1002,3.2323
23.9028,945,3.0484
23.9071,682,2.2000
23.9114,1004,3.2387
23.9156,1002,3.2323
23.9199,1003,3.2355
23.9242,877,2.8290
23.9286,755,2.4355
23.9330,1007,3.2484
23.9373,1005,3.2419
23.9415,996,3.2129
23.9458,789,2.5452
23.9501,932,3.0065
23.9544,1006,3.2452
23.9587,1002,3.2323
23.9629,981,3.1645
23.9672,753,2.4290
23.9715,1004,3.2387
23.9758,1002,3.2323
23.9801,1004,3.2387
23.9843,877,2.8290
23.9886,754,2.4323
23.9928,1005,3.2419
23.9970,1005,3.2419
24.0013,995,3.2097
24.0055,853,2.7516
24.0097,1006,3.2452
24.0140,1008,3.2516
24.0182,1007,3.2484
24.0224,1006,3.2452
24.0266,1004,3.2387
24.0309,1004,3.2387
24.0351,1005,3.2419
24.0393,1005,3.2419
24.0435,1002,3.2323
24.0478,1004,3.2387
24.0521,1005,3.2419
24.0564,1006,3.2452
24.0607,1006,3.2452
24.0650,1005,3.2419
24.0693,1006,3.2452
24.0736,1006,3.2452
24.0779,1001,3.2290
24.0822,980,3.1613
24.0864,716,2.3097
24.0907,993,3.2032
24.0950,1004,3.2387
24.0992,1004,3.2387
24.1035,927,2.9903
24.1078,990,3.1935
24.1121,1004,3.2387
24.1164,1006,3.2452
24.1218,1000,3.2258
24.1262,1004,3.2387
24.1304,1005,3.2419
24.1347,1006,3.2452
24.1389,1004,3.2387
24.1431,1001,3.2290
24.1473,868,2.8000
24.1515,1004,3.2387
24.1558,1005,3.2419
24.1600,1000,3.2258
24.1642,863,2.7839
24.1684,713,2.3000
24.1727,1004,3.2387
24.1769,1003,3.2355
24.1812,1001,3.2290
24.1855,790,2.5484
24.1899,852,2.7484
24.1943,1005,3.2419
24.1986,1004,3.2387
24.2030,917,2.9581
24.2073,673,2.1710
24.2116,1003,3.2355
24.2159,1005,3.2419
24.2202,1001,3.2290
24.2244,913,2.9452
24.2286,886,2.8581
24.2329,1006,3.2452
24.2372,1002,3.2323
24.2415,1001,3.2290
24.2457,875,2.8226
24.2500,1003,3.2355
24.2542,1007,3.2484
24.2585,1006,3.2452
24.2628,1007,3.2484
24.2670,1004,3.2387
24.2712,1007,3.2484
24.2754,1007,3.2484
24.2796,1005,3.2419
24.2838,1003,3.2355
24.2880,995,3.2097
24.2922,1007,3.2484
24.2965,1006,3.2452
24.3007,1006,3.2452
24.3049,999,3.2226
24.3092,1002,3.2323
24.3134,1004,3.2387
24.3177,1004,3.2387
24.3221,1002,3.2323
24.3264,874,2.8194
24.3307,1000,3.2258
24.3350,1004,3.2387
24.3393,1003,3.2355
24.3436,892,2.8774
24.3479,648,2.0903
24.3522,1004,3.2387
24.3566,1004,3.2387
24.3610,999,3.2226
24.3653,755,2.4355
24.3696,809,2.6097
24.3739,1006,3.2452
24.3782,1005,3.2419
24.3826,943,3.0419
24.3869,679,2.1903
24.3912,1003,3.2355
24.3955,1005,3.2419
24.3998,1000,3.2258
24.4041,822,2.6516
24.4084,667,2.1516
24.4128,1002,3.2323
24.4171,1002,3.2323
24.4214,987,3.1839
24.4257,792,2.5548
24.4301,1003,3.2355
24.4344,1005,3.2419
24.4386,1004,3.2387
24.4430,1005,3.2419
24.4473,1003,3.2355
24.4516,1004,3.2387
24.4559,1004,3.2387
24.4602,1007,3.2484
24.4645,1006,3.2452
24.4688,1006,3.2452
24.4732,1007,3.2484
24.4775,1006,3.2452
24.4818,1003,3.2355
24.4861,1002,3.2323
24.4904,1002,3.2323
24.4947,1007,3.2484
24.4990,1002,3.2323
24.5035,968,3.1226
24.5079,823,2.6548
24.5123,1005,3.2419
24.5166,1004,3.2387
24.5208,1002,3.2323
24.5251,838,2.7032
24.5294,839,2.7065
24.5336,1004,3.2387
24.5378,1004,3.2387
24.5421,944,3.0452
24.5465,833,2.6871
24.5507,1004,3.2387
24.5550,1005,3.2419
24.5592,1004,3.2387
24.5636,1004,3.2387
24.5678,1004,3.2387
24.5720,1003,3.2355
24.5762,1005,3.2419
24.5804,1003,3.2355
24.5846,935,3.0161
24.5888,852,2.7484
24.5930,1006,3.2452
24.5972,1003,3.2355
24.6016,972,3.1355
24.6058,728,2.3484
24.6101,1003,3.2355
24.6143,1006,3.2452
24.6186,1006,3.2452
24.6229,1003,3.2355
24.6272,1001,3.2290
24.6315,1007,3.2484
24.6358,1006,3.2452
24.6402,1005,3.2419
24.6445,1005,3.2419
24.6488,1006,3.2452
24.6531,1005,3.2419
24.6573,1005,3.2419
24.6616,1007,3.2484
24.6659,1006,3.2452
24.6701,1004,3.2387
24.6743,1006,3.2452
24.6786,1007,3.2484
24.6829,1007,3.2484
24.6872,1007,3.2484
24.6915,1003,3.2355
24.6957,1007,3.2484
24.6999,1007,3.2484
24.7041,1004,3.2387
24.7084,1006,3.2452
24.7127,1004,3.2387
24.7169,1007,3.2484
24.7221,1007,3.2484
24.7264,1006,3.2452
24.7306,1007,3.2484
24.7349,1006,3.2452
24.7391,1006,3.2452
24.7433,1005,3.2419
24.7476,1004,3.2387
24.7519,1007,3.2484
24.7562,1005,3.2419
24.7605,1003,3.2355
24.7648,939,3.0290
24.7691,917,2.9581
24.7735,1005,3.2419
24.7778,1004,3.2387
24.7821,949,3.0613
24.7864,663,2.1387
24.7908,960,3.0968
24.7951,1005,3.2419
24.7994,972,3.1355
24.8036,715,2.3065
24.8079,613,1.9774
24.8122,1005,3.2419
24.8165,1006,3.2452
24.8207,991,3.1968
24.8250,774,2.4968
24.8293,1004,3.2387
24.8335,1006,3.2452
24.8378,1006,3.2452
24.8421,1007,3.2484
24.8464,1005,3.2419
24.8506,1006,3.2452
24.8548,1007,3.2484
24.8590,1005,3.2419
24.8634,979,3.1581
24.8676,762,2.4581
24.8719,1004,3.2387
24.8761,1004,3.2387
24.8803,1001,3.2290
24.8845,826,2.6645
24.8888,830,2.6774
24.8930,1003,3.2355
24.8972,1004,3.2387
24.9017,992,3.2000
24.9060,948,3.0581
24.9104,1005,3.2419
24.9147,1005,3.2419
24.9190,1008,3.2516
24.9234,1006,3.2452
24.9277,1005,3.2419
24.9320,1006,3.2452
24.9363,1007,3.2484
24.9406,1004,3.2387
24.9449,1004,3.2387
24.9493,1004,3.2387
24.9535,1003,3.2355
24.9578,1006,3.2452
24.9621,1002,3.2323
24.9665,967,3.1194
24.9708,1003,3.2355
24.9751,1006,3.2452
24.9794,1004,3.2387
24.9836,963,3.1065
24.9879,787,2.5387
24.9921,1005,3.2419
24.9963,1004,3.2387
25.0005,997,3.2161
25.0047,770,2.4839
25.0090,829,2.6742
25.0136,1006,3.2452
25.0384,1004,3.2387
25.0427,1003,3.2355
25.0470,998,3.2194
25.0512,1005,3.2419
25.0555,1006,3.2452
25.0598,1007,3.2484
25.0641,1000,3.2258
25.0685,1004,3.2387
25.0729,1004,3.2387
25.0772,1006,3.2452
25.0814,1002,3.2323
25.0856,938,3.0258
25.0899,1004,3.2387
25.0942,1004,3.2387
25.0986,1002,3.2323
25.1029,893,2.8806
25.1074,650,2.0968
25.1118,1005,3.2419
25.1161,1003,3.2355
25.1204,995,3.2097
25.1247,751,2.4226
25.1289,805,2.5968
25.1331,1004,3.2387
25.1374,1002,3.2323
25.1416,960,3.0968
25.1458,709,2.2871
25.1500,1003,3.2355
25.1542,1004,3.2387
25.1584,1005,3.2419
25.1627,996,3.2129
25.1669,757,2.4419
25.1711,1005,3.2419
25.1754,1005,3.2419
25.1796,1002,3.2323
25.1838,843,2.7194
25.1881,598,1.9290
25.1924,1003,3.2355
25.1968,987,3.1839
25.2011,721,2.3258
25.2054,537,1.7323
25.2096,893,2.8806
25.2139,1005,3.2419
25.2182,1003,3.2355
25.2225,903,2.9129
25.2269,660,2.1290
25.2312,1004,3.2387
25.2354,1003,3.2355
25.2397,998,3.2194
25.2440,778,2.5097
25.2482,725,2.3387
25.2525,1005,3.2419
25.2568,1001,3.2290
25.2610,974,3.1419
25.2652,720,2.3226
25.2695,937,3.0226
25.2737,1005,3.2419
25.2779,1002,3.2323
25.2821,910,2.9355
25.2863,700,2.2581
25.2905,1006,3.2452
25.2948,1005,3.2419
25.2990,1000,3.2258
25.3033,844,2.7226
25.3075,740,2.3871
25.3117,1003,3.2355
25.3160,1004,3.2387
25.3203,996,3.2129
25.3247,905,2.9194
25.3290,1004,3.2387
25.3333,1005,3.2419
25.3376,1005,3.2419
25.3419,1005,3.2419
25.3462,1004,3.2387
25.3505,1004,3.2387
25.3548,1005,3.2419
25.3591,1005,3.2419
25.3635,997,3.2161
25.3677,964,3.1097
25.3720,1004,3.2387
25.3762,1002,3.2323
25.3805,997,3.2161
25.3848,848,2.7355
25.3890,1005,3.2419
25.3932,1007,3.2484
25.3974,1005,3.2419
25.4017,1006,3.2452
25.4059,1003,3.2355
25.4101,1006,3.2452
25.4144,1007,3.2484
25.4186,1006,3.2452
25.4228,1006,3.2452
25.4270,1002,3.2323
25.4312,1006,3.2452
25.4355,1007,3.2484
25.4397,1001,3.2290
25.4440,921,2.9710
25.4483,947,3.0548
25.4527,1007,3.2484
25.4569,1002,3.2323
25.4612,971,3.1323
25.4656,718,2.3161
25.4699,1003,3.2355
25.4741,1002,3.2323
25.4784,1003,3.2355
25.4827,878,2.8323
25.4870,730,2.3548
25.4913,1005,3.2419
25.4955,1005,3.2419
25.4998,998,3.2194
25.5041,786,2.5355
25.5084,871,2.8097
25.5126,1004,3.2387
25.5169,1004,3.2387
25.5212,961,3.1000
25.5254,710,2.2903
25.5296,1001,3.2290
25.5338,1006,3.2452
25.5380,1003,3.2355
25.5422,888,2.8645
25.5465,681,2.1968
25.5507,1004,3.2387
25.5549,1006,3.2452
25.5592,1002,3.2323
25.5634,928,2.9935
25.5677,1005,3.2419
25.5719,1007,3.2484
25.5761,1006,3.2452
25.5803,1007,3.2484
25.5846,1003,3.2355
25.5890,1004,3.2387
25.5934,1005,3.2419
25.5977,1005,3.2419
25.6020,992,3.2000
25.6063,807,2.6032
25.6106,1005,3.2419
25.6153,1007,3.2484
25.6234,829,2.6742
25.6278,802,2.5871
25.6320,1007,3.2484
25.6363,1004,3.2387
25.6406,991,3.1968
25.6449,738,2.3806
25.6491,990,3.1935
25.6534,1005,3.2419
25.6577,1003,3.2355
25.6620,915,2.9516
25.6663,670,2.1613
25.6706,1002,3.2323
25.6748,1004,3.2387
25.6790,993,3.2032
25.6833,735,2.3710
25.6875,736,2.3742
25.6917,1004,3.2387
25.6959,1003,3.2355
25.7001,997,3.2161
25.7044,754,2.4323
25.7086,932,3.0065
25.7129,1007,3.2484
25.7171,1005,3.2419
25.7213,963,3.1065
25.7256,715,2.3065
25.7299,1004,3.2387
25.7342,1004,3.2387
25.7385,1003,3.2355
25.7428,870,2.8065
25.7472,776,2.5032
25.7515,1005,3.2419
25.7559,1004,3.2387
25.7602,995,3.2097
25.7644,857,2.7645
25.7688,1003,3.2355
25.7731,1004,3.2387
25.7773,1005,3.2419
25.7816,1006,3.2452
25.7858,1006,3.2452
25.7901,1007,3.2484
25.7944,1007,3.2484
25.7987,1004,3.2387
25.8030,1000,3.2258
25.8073,1004,3.2387
25.8116,1006,3.2452
25.8159,1005,3.2419
25.8202,1005,3.2419
25.8244,915,2.9516
25.8287,1002,3.2323
25.8330,1004,3.2387
25.8374,1005,3.2419
25.8417,973,3.1387
25.8460,1003,3.2355
25.8504,1006,3.2452
25.8547,1004,3.2387
25.8590,1004,3.2387
25.8634,1006,3.2452
25.8677,1005,3.2419
25.8720,1004,3.2387
25.8763,1007,3.2484
25.8806,1005,3.2419
25.8849,1004,3.2387
25.8893,1007,3.2484
25.8936,1006,3.2452
25.8979,1006,3.2452
25.9022,1007,3.2484
25.9065,1006,3.2452
25.9108,1006,3.2452
25.9161,1005,3.2419
25.9227,997,3.2161
25.9271,997,3.2161
25.9314,992,3.2000
25.9357,1004,3.2387
25.9400,1001,3.2290
25.9444,814,2.6258
25.9487,998,3.2194
25.9530,1006,3.2452
25.9573,1001,3.2290
25.9616,909,2.9323
25.9659,721,2.3258
25.9703,1005,3.2419
25.9746,1005,3.2419
25.9789,1001,3.2290
25.9833,824,2.6581
25.9877,874,2.8194
25.9920,1006,3.2452
25.9964,1005,3.2419
26.0007,988,3.1871
26.0050,700,2.2581
26.0093,1003,3.2355
26.0136,1004,3.2387
26.0181,1003,3.2355
26.0224,908,2.9290
26.0267,1006,3.2452
26.0310,1006,3.2452
26.0353,1006,3.2452
26.0396,1007,3.2484
26.0439,1006,3.2452
26.0483,1004,3.2387
26.0526,1006,3.2452
26.0569,1005,3.2419
26.0612,1005,3.2419
26.0656,997,3.2161
26.0699,1004,3.2387
26.0742,1007,3.2484
26.0785,1003,3.2355
26.0829,884,2.8516
26.0872,825,2.6613
26.0915,1006,3.2452
26.0958,1004,3.2387
26.1001,987,3.1839
26.1044,752,2.4258
26.1088,1002,3.2323
26.1132,1004,3.2387
26.1176,1003,3.2355
26.1219,885,2.8548
26.1262,734,2.3677
26.1305,1005,3.2419
26.1348,1006,3.2452
26.1391,1000,3.2258
26.1435,764,2.4645
26.1478,851,2.7452
26.1521,1004,3.2387
26.1564,1002,3.2323
26.1607,966,3.1161
26.1651,703,2.2677
26.1694,1002,3.2323
26.1737,1004,3.2387
26.1780,1000,3.2258
26.1824,834,2.6903
