time_s,adc_raw,voltage
0.0000,1007,3.2484
0.0046,1005,3.2419
0.0090,1006,3.2452
0.0206,1006,3.2452
0.0251,1005,3.2419
0.0296,1005,3.2419
0.0342,1006,3.2452
0.0387,1006,3.2452
0.0433,1007,3.2484
0.0479,1006,3.2452
0.0525,1005,3.2419
0.0571,1006,3.2452
0.0616,1006,3.2452
0.0661,1005,3.2419
0.0707,1005,3.2419
0.0752,1007,3.2484
0.0798,1007,3.2484
0.0843,1006,3.2452
0.0888,1006,3.2452
0.0934,1005,3.2419
0.0979,1005,3.2419
0.1025,1006,3.2452
0.1070,1006,3.2452
0.1116,1005,3.2419
0.1161,1007,3.2484
0.1206,1006,3.2452
0.1252,1007,3.2484
0.1297,1005,3.2419
0.1343,1005,3.2419
0.1388,1007,3.2484
0.1434,1007,3.2484
0.1479,1006,3.2452
0.1524,1006,3.2452
0.1570,1003,3.2355
0.1616,1006,3.2452
0.1661,1006,3.2452
0.1707,1006,3.2452
0.1752,1005,3.2419
0.1798,1005,3.2419
0.1843,1007,3.2484
0.1887,1006,3.2452
0.1932,1006,3.2452
0.1977,1007,3.2484
0.2022,1007,3.2484
0.2066,1006,3.2452
0.2111,1006,3.2452
0.2155,1005,3.2419
0.2199,1006,3.2452
0.2244,1006,3.2452
0.2290,1005,3.2419
0.2336,1007,3.2484
0.2382,1005,3.2419
0.2428,1007,3.2484
0.2477,1006,3.2452
0.2525,1007,3.2484
0.2571,1003,3.2355
0.2618,1005,3.2419
0.2664,1006,3.2452
0.2710,1006,3.2452
0.2756,1005,3.2419
0.2803,1007,3.2484
0.2852,1005,3.2419
0.2901,1006,3.2452
0.2951,1004,3.2387
0.3000,1006,3.2452
0.3048,1006,3.2452
0.3093,1007,3.2484
0.3138,1006,3.2452
0.3183,1007,3.2484
0.3227,1006,3.2452
0.3270,1004,3.2387
0.3314,1005,3.2419
0.3357,1006,3.2452
0.3400,1007,3.2484
0.3443,1007,3.2484
0.3485,1006,3.2452
0.3529,1007,3.2484
0.3572,1006,3.2452
0.3616,1004,3.2387
0.3659,1006,3.2452
0.3702,1004,3.2387
0.3745,1005,3.2419
0.3788,1006,3.2452
0.3831,1006,3.2452
0.3874,1006,3.2452
0.3916,1004,3.2387
0.3959,1007,3.2484
0.4003,1007,3.2484
0.4046,1007,3.2484
0.4089,1006,3.2452
0.4131,1007,3.2484
0.4174,1007,3.2484
0.4217,1005,3.2419
0.4260,1005,3.2419
0.4303,1006,3.2452
0.4346,1006,3.2452
0.4389,1005,3.2419
0.4432,1007,3.2484
0.4475,1004,3.2387
0.4518,1006,3.2452
0.4564,1007,3.2484
0.4607,1006,3.2452
0.4649,1006,3.2452
0.4692,1006,3.2452
0.4733,1006,3.2452
0.4776,1005,3.2419
0.4818,1005,3.2419
0.4860,1005,3.2419
0.4902,1006,3.2452
0.4944,1005,3.2419
0.4986,1006,3.2452
0.5029,1007,3.2484
0.5071,1004,3.2387
0.5112,1007,3.2484
0.5155,1006,3.2452
0.5197,1007,3.2484
0.5242,1005,3.2419
0.5285,1005,3.2419
0.5327,1006,3.2452
0.5369,1007,3.2484
0.5411,1007,3.2484
0.5454,1006,3.2452
0.5496,1006,3.2452
0.5538,1006,3.2452
0.5580,1007,3.2484
0.5622,1007,3.2484
0.5665,1005,3.2419
0.5707,1004,3.2387
0.5749,1006,3.2452
0.5792,1005,3.2419
0.5834,1007,3.2484
0.5876,1003,3.2355
0.5918,1007,3.2484
0.5961,1003,3.2355
0.6004,1004,3.2387
0.6047,1007,3.2484
0.6090,1005,3.2419
0.6133,1006,3.2452
0.6176,1004,3.2387
0.6219,1007,3.2484
0.6261,1004,3.2387
0.6304,1006,3.2452
0.6347,1007,3.2484
0.6389,1007,3.2484
0.6431,1005,3.2419
0.6473,1004,3.2387
0.6515,1007,3.2484
0.6557,1004,3.2387
0.6599,1007,3.2484
0.6641,1007,3.2484
0.6683,1006,3.2452
0.6725,1004,3.2387
0.6772,1006,3.2452
0.6814,1004,3.2387
0.6858,1006,3.2452
0.6901,1004,3.2387
0.6943,1006,3.2452
0.6985,1006,3.2452
0.7029,1005,3.2419
0.7071,1008,3.2516
0.7113,1007,3.2484
0.7155,1007,3.2484
0.7197,1006,3.2452
0.7239,1006,3.2452
0.7281,1007,3.2484
0.7324,1007,3.2484
0.7366,1006,3.2452
0.7407,1006,3.2452
0.7449,1006,3.2452
0.7492,1003,3.2355
0.7534,1007,3.2484
0.7576,1008,3.2516
0.7618,1006,3.2452
0.7661,1007,3.2484
0.7704,1007,3.2484
0.7747,1006,3.2452
0.7789,1004,3.2387
0.7831,1005,3.2419
0.7873,1006,3.2452
0.7916,1006,3.2452
0.7958,1005,3.2419
0.7999,1006,3.2452
0.8041,1004,3.2387
0.8083,1005,3.2419
0.8125,1006,3.2452
0.8167,1006,3.2452
0.8209,1006,3.2452
0.8260,1005,3.2419
0.8303,1007,3.2484
0.8346,1007,3.2484
0.8388,1005,3.2419
0.8429,1007,3.2484
0.8471,1006,3.2452
0.8514,1006,3.2452
0.8556,1004,3.2387
0.8598,1005,3.2419
0.8640,1006,3.2452
0.8682,1006,3.2452
0.8725,1008,3.2516
0.8767,1006,3.2452
0.8810,1007,3.2484
0.8853,1004,3.2387
0.8895,1004,3.2387
0.8937,1004,3.2387
0.8979,1005,3.2419
0.9021,1004,3.2387
0.9063,1007,3.2484
0.9105,1006,3.2452
0.9148,0,0.0000
0.9190,145,0.4677
0.9231,1007,3.2484
0.9273,1004,3.2387
0.9316,735,2.3710
0.9358,0,0.0000
0.9400,193,0.6226
0.9442,1007,3.2484
0.9490,1006,3.2452
0.9532,0,0.0000
0.9574,0,0.0000
0.9616,1000,3.2258
0.9658,1006,3.2452
0.9700,1003,3.2355
0.9742,0,0.0000
0.9784,0,0.0000
0.9826,1007,3.2484
0.9869,1007,3.2484
0.9911,709,2.2871
0.9953,0,0.0000
0.9995,0,0.0000
1.0037,1006,3.2452
1.0079,1007,3.2484
1.0121,239,0.7710
1.0163,0,0.0000
1.0205,468,1.5097
1.0247,1006,3.2452
1.0289,1005,3.2419
1.0332,0,0.0000
1.0374,0,0.0000
1.0416,1004,3.2387
1.0458,1005,3.2419
1.0499,1006,3.2452
1.0541,0,0.0000
1.0584,0,0.0000
1.0625,1003,3.2355
1.0667,1006,3.2452
1.0709,1004,3.2387
1.0751,0,0.0000
1.0793,147,0.4742
1.0835,1007,3.2484
1.0878,1004,3.2387
1.0924,0,0.0000
1.0966,0,0.0000
1.1008,640,2.0645
1.1050,1004,3.2387
1.1092,1006,3.2452
1.1133,0,0.0000
1.1176,0,0.0000
1.1218,1005,3.2419
1.1260,1006,3.2452
1.1307,705,2.2742
1.1349,0,0.0000
1.1392,0,0.0000
1.1434,1003,3.2355
1.1476,1006,3.2452
1.1518,0,0.0000
1.1560,0,0.0000
1.1603,193,0.6226
1.1645,1007,3.2484
1.1687,1006,3.2452
1.1728,0,0.0000
1.1770,0,0.0000
1.1813,563,1.8161
1.1856,1006,3.2452
1.1899,1004,3.2387
1.1942,0,0.0000
1.1985,0,0.0000
1.2028,1007,3.2484
1.2072,1004,3.2387
1.2116,610,1.9677
1.2158,0,0.0000
1.2202,131,0.4226
1.2246,1007,3.2484
1.2289,1006,3.2452
1.2333,0,0.0000
1.2376,0,0.0000
1.2419,1004,3.2387
1.2461,1006,3.2452
1.2504,1006,3.2452
1.2547,0,0.0000
1.2590,0,0.0000
1.2633,1007,3.2484
1.2675,1006,3.2452
1.2718,510,1.6452
1.2761,0,0.0000
1.2803,85,0.2742
1.2847,1004,3.2387
1.2890,1007,3.2484
1.2933,0,0.0000
1.2978,0,0.0000
1.3021,1004,3.2387
1.3063,1005,3.2419
1.3105,1001,3.2290
1.3148,0,0.0000
1.3191,0,0.0000
1.3234,1004,3.2387
1.3281,1006,3.2452
1.3326,0,0.0000
1.3368,0,0.0000
1.3411,543,1.7516
1.3454,1006,3.2452
1.3496,1007,3.2484
1.3538,0,0.0000
1.3581,0,0.0000
1.3623,1006,3.2452
1.3666,1006,3.2452
1.3709,879,2.8355
1.3752,0,0.0000
1.3803,235,0.7581
1.3849,1006,3.2452
1.3894,1005,3.2419
1.3938,0,0.0000
1.3982,0,0.0000
1.4027,1006,3.2452
1.4071,1007,3.2484
1.4115,699,2.2548
1.4159,0,0.0000
1.4203,375,1.2097
1.4247,1003,3.2355
1.4291,1006,3.2452
1.4339,0,0.0000
1.4382,0,0.0000
1.4426,1007,3.2484
1.4469,1004,3.2387
1.4512,838,2.7032
1.4556,0,0.0000
1.4599,172,0.5548
1.4642,1005,3.2419
1.4686,1004,3.2387
1.4729,0,0.0000
1.4773,0,0.0000
1.4816,1006,3.2452
1.4859,1007,3.2484
1.4903,1006,3.2452
1.4947,0,0.0000
1.4991,0,0.0000
1.5034,1007,3.2484
1.5085,1006,3.2452
1.5129,0,0.0000
1.5173,0,0.0000
1.5216,1004,3.2387
1.5260,1006,3.2452
1.5303,1002,3.2323
1.5347,0,0.0000
1.5391,0,0.0000
1.5434,1005,3.2419
1.5479,1005,3.2419
1.5522,170,0.5484
1.5566,0,0.0000
1.5609,691,2.2290
1.5662,1006,3.2452
1.5706,998,3.2194
1.5750,0,0.0000
1.5793,0,0.0000
1.5837,1003,3.2355
1.5881,1006,3.2452
1.5924,0,0.0000
1.5968,0,0.0000
1.6011,845,2.7258
1.6055,1007,3.2484
1.6099,1003,3.2355
1.6143,0,0.0000
1.6187,0,0.0000
1.6231,1006,3.2452
1.6277,1007,3.2484
1.6321,145,0.4677
1.6364,0,0.0000
1.6408,694,2.2387
1.6451,1006,3.2452
1.6494,1004,3.2387
1.6538,0,0.0000
1.6581,0,0.0000
1.6625,1004,3.2387
1.6668,1005,3.2419
1.6711,794,2.5613
1.6755,0,0.0000
1.6798,199,0.6419
1.6841,1006,3.2452
1.6884,1005,3.2419
1.6934,0,0.0000
1.6977,0,0.0000
1.7020,1005,3.2419
1.7063,1006,3.2452
1.7107,943,3.0419
1.7150,0,0.0000
1.7193,0,0.0000
1.7236,1007,3.2484
1.7280,1004,3.2387
1.7324,550,1.7742
1.7367,0,0.0000
1.7410,1006,3.2452
1.7454,1004,3.2387
1.7497,1006,3.2452
1.7541,1006,3.2452
1.7584,1005,3.2419
1.7626,1007,3.2484
1.7668,1005,3.2419
1.7712,1006,3.2452
1.7754,1007,3.2484
1.7796,1006,3.2452
1.7838,1006,3.2452
1.7880,1006,3.2452
1.7923,1005,3.2419
1.7966,1003,3.2355
1.8008,1005,3.2419
1.8051,1004,3.2387
1.8094,1007,3.2484
1.8136,1007,3.2484
1.8179,1005,3.2419
1.8221,1007,3.2484
1.8264,1006,3.2452
1.8310,1004,3.2387
1.8356,933,3.0097
1.8399,1007,3.2484
1.8441,1006,3.2452
1.8483,1007,3.2484
1.8530,1007,3.2484
1.8572,1006,3.2452
1.8614,1007,3.2484
1.8656,1005,3.2419
1.8698,1006,3.2452
1.8740,1007,3.2484
1.8782,1005,3.2419
1.8824,1004,3.2387
1.8866,1006,3.2452
1.8908,1007,3.2484
1.8950,1007,3.2484
1.8993,1005,3.2419
1.9035,1004,3.2387
1.9077,1006,3.2452
1.9118,1007,3.2484
1.9160,1007,3.2484
1.9203,1007,3.2484
1.9245,1007,3.2484
1.9287,1007,3.2484
1.9329,1004,3.2387
1.9371,1007,3.2484
1.9414,1006,3.2452
1.9456,1006,3.2452
1.9498,1006,3.2452
1.9540,1006,3.2452
1.9582,1006,3.2452
1.9625,1007,3.2484
1.9667,1008,3.2516
1.9709,1007,3.2484
1.9755,1006,3.2452
1.9798,1006,3.2452
1.9842,1005,3.2419
1.9885,1007,3.2484
1.9928,1007,3.2484
1.9970,1004,3.2387
2.0013,1004,3.2387
2.0056,1005,3.2419
2.0099,1004,3.2387
2.0142,1007,3.2484
2.0185,1004,3.2387
2.0231,1006,3.2452
2.0275,1005,3.2419
2.0318,1004,3.2387
2.0362,1007,3.2484
2.0412,1007,3.2484
2.0456,1007,3.2484
2.0500,1005,3.2419
2.0544,1006,3.2452
2.0586,1006,3.2452
2.0629,1005,3.2419
2.0672,1006,3.2452
2.0714,1007,3.2484
2.0757,1007,3.2484
2.0800,1006,3.2452
2.0843,1004,3.2387
2.0885,1006,3.2452
2.0935,1007,3.2484
2.0984,1005,3.2419
2.1027,1003,3.2355
2.1069,1006,3.2452
2.1112,1008,3.2516
2.1155,1006,3.2452
2.1198,1004,3.2387
2.1240,1005,3.2419
2.1283,1005,3.2419
2.1326,1008,3.2516
2.1369,1006,3.2452
2.1412,1006,3.2452
2.1455,1004,3.2387
2.1497,1006,3.2452
2.1540,1004,3.2387
2.1582,1004,3.2387
2.1624,1004,3.2387
2.1667,1007,3.2484
2.1709,1006,3.2452
2.1750,1005,3.2419
2.1792,1007,3.2484
2.1834,1005,3.2419
2.1878,1005,3.2419
2.1921,1006,3.2452
2.1964,1005,3.2419
2.2007,1006,3.2452
2.2051,1006,3.2452
2.2094,1008,3.2516
2.2137,1006,3.2452
2.2179,1006,3.2452
2.2222,1005,3.2419
2.2264,1006,3.2452
2.2306,1007,3.2484
2.2348,1007,3.2484
2.2391,1004,3.2387
2.2433,1008,3.2516
2.2475,1006,3.2452
2.2517,1005,3.2419
2.2560,1005,3.2419
2.2603,1006,3.2452
2.2646,1004,3.2387
2.2689,1008,3.2516
2.2731,1006,3.2452
2.2773,1004,3.2387
2.2815,1005,3.2419
2.2858,1005,3.2419
2.2901,1008,3.2516
2.2949,1004,3.2387
2.2992,1004,3.2387
2.3034,1007,3.2484
2.3077,1006,3.2452
2.3119,1007,3.2484
2.3162,1007,3.2484
2.3204,1005,3.2419
2.3247,1004,3.2387
2.3290,1006,3.2452
2.3332,1004,3.2387
2.3374,1006,3.2452
2.3416,1006,3.2452
2.3458,1006,3.2452
2.3501,1007,3.2484
2.3543,1006,3.2452
2.3585,1004,3.2387
2.3628,1006,3.2452
2.3671,1006,3.2452
2.3714,1007,3.2484
2.3757,1003,3.2355
2.3801,1008,3.2516
2.3847,1004,3.2387
2.3890,1007,3.2484
2.3933,1007,3.2484
2.3976,1004,3.2387
2.4019,1007,3.2484
2.4062,1007,3.2484
2.4104,1007,3.2484
2.4148,1008,3.2516
2.4190,1005,3.2419
2.4233,1006,3.2452
2.4276,1006,3.2452
2.4319,1005,3.2419
2.4362,1007,3.2484
2.4405,1007,3.2484
2.4448,1007,3.2484
2.4491,1006,3.2452
2.4534,1004,3.2387
2.4576,1003,3.2355
2.4618,1007,3.2484
2.4664,1004,3.2387
2.4707,1007,3.2484
2.4749,1006,3.2452
2.4790,1005,3.2419
2.4832,1005,3.2419
2.4874,1006,3.2452
2.4917,1005,3.2419
2.4963,1006,3.2452
2.5005,1006,3.2452
2.5047,1004,3.2387
2.5089,1004,3.2387
2.5131,1007,3.2484
2.5173,1005,3.2419
2.5215,1005,3.2419
2.5257,1005,3.2419
2.5299,1005,3.2419
2.5342,1004,3.2387
2.5384,1004,3.2387
2.5426,1006,3.2452
2.5469,1007,3.2484
2.5512,1004,3.2387
2.5555,1008,3.2516
2.5598,1007,3.2484
2.5640,1004,3.2387
2.5688,1008,3.2516
2.5731,1004,3.2387
2.5774,1006,3.2452
2.5817,1005,3.2419
2.5860,1005,3.2419
2.5904,1006,3.2452
2.5947,1004,3.2387
2.5990,1006,3.2452
2.6033,1004,3.2387
2.6075,1006,3.2452
2.6118,1007,3.2484
2.6161,1005,3.2419
2.6204,1006,3.2452
2.6247,1007,3.2484
2.6290,1006,3.2452
2.6333,1004,3.2387
2.6377,1007,3.2484
2.6420,1007,3.2484
2.6464,1007,3.2484
2.6509,1006,3.2452
2.6552,1007,3.2484
2.6594,1006,3.2452
2.6637,1007,3.2484
2.6679,1004,3.2387
2.6722,1004,3.2387
2.6765,1007,3.2484
2.6808,1006,3.2452
2.6850,1004,3.2387
2.6893,1005,3.2419
2.6936,1003,3.2355
2.6979,1007,3.2484
2.7022,1007,3.2484
2.7065,1004,3.2387
2.7107,1006,3.2452
2.7150,1006,3.2452
2.7192,1006,3.2452
2.7234,1005,3.2419
2.7276,1005,3.2419
2.7318,1006,3.2452
2.7360,1005,3.2419
2.7402,1007,3.2484
2.7444,1006,3.2452
2.7487,1006,3.2452
2.7530,1007,3.2484
2.7573,1006,3.2452
2.7615,1005,3.2419
2.7657,1007,3.2484
2.7699,1004,3.2387
2.7741,1004,3.2387
2.7783,1006,3.2452
2.7825,1006,3.2452
2.7866,1005,3.2419
2.7908,1006,3.2452
2.7950,1004,3.2387
2.7993,1005,3.2419
2.8035,1006,3.2452
2.8077,1006,3.2452
2.8118,1005,3.2419
2.8161,1006,3.2452
2.8203,1004,3.2387
2.8245,1003,3.2355
2.8287,1005,3.2419
2.8329,1005,3.2419
2.8372,1004,3.2387
2.8414,1006,3.2452
2.8456,1005,3.2419
2.8499,1005,3.2419
2.8540,1007,3.2484
2.8582,1005,3.2419
2.8625,1005,3.2419
2.8667,1005,3.2419
2.8709,1004,3.2387
2.8751,1007,3.2484
2.8801,1005,3.2419
2.8844,1006,3.2452
2.8886,1007,3.2484
2.8929,1005,3.2419
2.8971,1004,3.2387
2.9014,1007,3.2484
2.9057,1005,3.2419
2.9100,1007,3.2484
2.9142,1004,3.2387
2.9185,1004,3.2387
2.9228,1007,3.2484
2.9270,1007,3.2484
2.9313,1004,3.2387
2.9356,1004,3.2387
2.9398,1006,3.2452
2.9441,1004,3.2387
2.9484,1007,3.2484
2.9526,1007,3.2484
2.9574,1004,3.2387
2.9617,1005,3.2419
2.9659,1005,3.2419
2.9701,1004,3.2387
2.9743,1005,3.2419
2.9785,1007,3.2484
2.9827,1006,3.2452
2.9870,1007,3.2484
2.9912,1006,3.2452
2.9957,1004,3.2387
2.9999,1007,3.2484
3.0042,1004,3.2387
3.0084,1007,3.2484
3.0126,1005,3.2419
3.0167,1004,3.2387
3.0209,1004,3.2387
3.0252,1007,3.2484
3.0294,1007,3.2484
3.0336,1007,3.2484
3.0377,1004,3.2387
3.0420,1004,3.2387
3.0463,1007,3.2484
3.0505,1004,3.2387
3.0547,1007,3.2484
3.0594,1006,3.2452
3.0637,1007,3.2484
3.0679,1007,3.2484
3.0721,1005,3.2419
3.0762,1004,3.2387
3.0804,1007,3.2484
3.0848,1005,3.2419
3.0890,1004,3.2387
3.0933,1007,3.2484
3.0976,1006,3.2452
3.1019,1005,3.2419
3.1062,1006,3.2452
3.1105,1007,3.2484
3.1149,1007,3.2484
3.1192,1006,3.2452
3.1235,1007,3.2484
3.1279,1007,3.2484
3.1321,1007,3.2484
3.1364,1005,3.2419
3.1407,1006,3.2452
3.1455,1007,3.2484
3.1498,1006,3.2452
3.1541,1005,3.2419
3.1584,1005,3.2419
3.1627,1007,3.2484
3.1670,1007,3.2484
3.1713,1006,3.2452
3.1755,1004,3.2387
3.1798,1004,3.2387
3.1841,1006,3.2452
3.1883,1005,3.2419
3.1926,1006,3.2452
3.1972,1005,3.2419
3.2014,1007,3.2484
3.2058,1006,3.2452
3.2101,1007,3.2484
3.2144,1004,3.2387
3.2186,1007,3.2484
3.2233,1005,3.2419
3.2276,1008,3.2516
3.2318,1004,3.2387
3.2363,1006,3.2452
3.2406,1005,3.2419
3.2448,1005,3.2419
3.2491,1006,3.2452
3.2534,1006,3.2452
3.2577,1006,3.2452
3.2619,1006,3.2452
3.2662,1007,3.2484
3.2704,1007,3.2484
3.2747,1005,3.2419
3.2789,1007,3.2484
3.2831,1007,3.2484
3.2873,1007,3.2484
3.2915,1007,3.2484
3.2957,1005,3.2419
3.2999,1004,3.2387
3.3041,1005,3.2419
3.3084,1007,3.2484
3.3126,1006,3.2452
3.3168,1008,3.2516
3.3210,1006,3.2452
3.3255,1004,3.2387
3.3297,1008,3.2516
3.3339,1004,3.2387
3.3382,1007,3.2484
3.3424,1006,3.2452
3.3466,1006,3.2452
3.3509,1007,3.2484
3.3551,1005,3.2419
3.3593,1007,3.2484
3.3635,1007,3.2484
3.3677,1005,3.2419
3.3720,1005,3.2419
3.3762,1006,3.2452
3.3806,1003,3.2355
3.3849,1007,3.2484
3.3892,1004,3.2387
3.3935,1008,3.2516
3.3978,1005,3.2419
3.4020,1008,3.2516
3.4063,1007,3.2484
3.4106,1007,3.2484
3.4149,1007,3.2484
3.4192,1006,3.2452
3.4234,1005,3.2419
3.4276,1005,3.2419
3.4319,1006,3.2452
3.4361,1003,3.2355
3.4403,1006,3.2452
3.4446,1004,3.2387
3.4489,1006,3.2452
3.4532,1006,3.2452
3.4576,1007,3.2484
3.4620,1004,3.2387
3.4663,1006,3.2452
3.4706,1007,3.2484
3.4751,1006,3.2452
3.4794,1004,3.2387
3.4837,1006,3.2452
3.4879,1005,3.2419
3.4921,1007,3.2484
3.4964,1005,3.2419
3.5007,1005,3.2419
3.5049,1004,3.2387
3.5095,1006,3.2452
3.5138,1004,3.2387
3.5180,1003,3.2355
3.5223,1004,3.2387
3.5266,1006,3.2452
3.5309,1004,3.2387
3.5353,1003,3.2355
3.5396,1007,3.2484
3.5438,1007,3.2484
3.5481,1007,3.2484
3.5524,1005,3.2419
3.5567,1005,3.2419
3.5610,1005,3.2419
3.5654,1007,3.2484
3.5698,1007,3.2484
3.5742,1005,3.2419
3.5786,1006,3.2452
3.5829,1005,3.2419
3.5873,1005,3.2419
3.5920,1006,3.2452
3.5964,1006,3.2452
3.6007,1006,3.2452
3.6051,1007,3.2484
3.6094,1007,3.2484
3.6137,1005,3.2419
3.6181,1006,3.2452
3.6223,1007,3.2484
3.6267,1005,3.2419
3.6309,1005,3.2419
3.6353,1004,3.2387
3.6396,1005,3.2419
3.6440,1005,3.2419
3.6483,1005,3.2419
3.6526,1005,3.2419
3.6577,1004,3.2387
3.6621,1006,3.2452
3.6664,1003,3.2355
3.6707,1006,3.2452
3.6750,1005,3.2419
3.6793,1006,3.2452
3.6836,1006,3.2452
3.6879,1007,3.2484
3.6922,1005,3.2419
3.6966,1007,3.2484
3.7012,1006,3.2452
3.7056,1006,3.2452
3.7100,1007,3.2484
3.7144,1003,3.2355
3.7188,1007,3.2484
3.7232,1006,3.2452
3.7277,1007,3.2484
3.7322,1005,3.2419
3.7368,1005,3.2419
3.7414,1005,3.2419
3.7460,1007,3.2484
3.7506,1007,3.2484
3.7564,1006,3.2452
3.7621,1005,3.2419
3.7667,1005,3.2419
3.7712,1008,3.2516
3.7758,1005,3.2419
3.7804,1006,3.2452
3.7851,1006,3.2452
3.7896,1005,3.2419
3.7941,1005,3.2419
3.7995,1005,3.2419
3.8040,1006,3.2452
3.8085,1005,3.2419
3.8131,1007,3.2484
3.8176,1005,3.2419
3.8221,1006,3.2452
3.8266,1007,3.2484
3.8312,1004,3.2387
3.8357,1007,3.2484
3.8407,1006,3.2452
3.8452,1006,3.2452
3.8497,1007,3.2484
3.8542,1007,3.2484
3.8587,1006,3.2452
3.8632,1005,3.2419
3.8677,1007,3.2484
3.8722,1004,3.2387
3.8768,1005,3.2419
3.8823,1003,3.2355
3.8868,1007,3.2484
3.8913,1006,3.2452
3.8958,1006,3.2452
3.9003,1005,3.2419
3.9048,1006,3.2452
3.9093,1007,3.2484
3.9138,1004,3.2387
3.9183,1006,3.2452
3.9238,1007,3.2484
3.9283,1007,3.2484
3.9329,1007,3.2484
3.9374,1005,3.2419
3.9419,1005,3.2419
3.9465,1006,3.2452
3.9510,1005,3.2419
3.9554,1005,3.2419
3.9599,1005,3.2419
3.9654,1004,3.2387
3.9699,1007,3.2484
3.9744,1007,3.2484
3.9789,1006,3.2452
3.9833,1004,3.2387
3.9878,1007,3.2484
3.9923,1007,3.2484
3.9968,1005,3.2419
4.0013,1006,3.2452
4.0067,1006,3.2452
4.0112,1005,3.2419
4.0157,1005,3.2419
4.0202,1005,3.2419
4.0248,1007,3.2484
4.0293,1006,3.2452
4.0338,1005,3.2419
4.0383,1007,3.2484
4.0428,1007,3.2484
4.0483,1005,3.2419
4.0529,1006,3.2452
4.0574,1003,3.2355
4.0620,1007,3.2484
4.0665,1004,3.2387
4.0710,1007,3.2484
4.0755,1005,3.2419
4.0800,1005,3.2419
4.0845,1007,3.2484
4.0900,1004,3.2387
4.0945,1006,3.2452
4.0990,1007,3.2484
4.1035,1006,3.2452
4.1080,1006,3.2452
4.1125,1007,3.2484
4.1171,1006,3.2452
4.1216,1007,3.2484
4.1261,1005,3.2419
4.1316,1006,3.2452
4.1362,1005,3.2419
4.1416,1006,3.2452
4.1461,1007,3.2484
4.1506,1007,3.2484
4.1551,1006,3.2452
4.1597,1006,3.2452
4.1642,1006,3.2452
4.1687,1007,3.2484
4.1732,1006,3.2452
4.1777,1006,3.2452
4.1822,1006,3.2452
4.1867,1007,3.2484
4.1912,1005,3.2419
4.1958,1005,3.2419
4.2003,1006,3.2452
4.2049,1005,3.2419
4.2094,1006,3.2452
4.2148,1006,3.2452
4.2194,1005,3.2419
4.2239,1007,3.2484
4.2284,1006,3.2452
4.2329,1005,3.2419
4.2374,1006,3.2452
4.2423,1006,3.2452
4.2468,1006,3.2452
4.2514,1007,3.2484
4.2565,1005,3.2419
4.2610,1006,3.2452
4.2656,1007,3.2484
4.2700,1006,3.2452
4.2745,1004,3.2387
4.2790,1007,3.2484
4.2836,1006,3.2452
4.2881,1007,3.2484
4.2926,1004,3.2387
4.2981,1005,3.2419
4.3027,1006,3.2452
4.3072,1007,3.2484
4.3117,1006,3.2452
4.3162,1005,3.2419
4.3207,1006,3.2452
4.3253,1003,3.2355
4.3298,1007,3.2484
4.3343,1006,3.2452
4.3396,1006,3.2452
4.3441,1007,3.2484
4.3486,1006,3.2452
4.3531,1005,3.2419
4.3576,1004,3.2387
4.3621,1007,3.2484
4.3666,1007,3.2484
4.3711,1004,3.2387
4.3756,1007,3.2484
4.3812,1006,3.2452
4.3858,1006,3.2452
4.3902,1006,3.2452
4.3948,1007,3.2484
4.3993,1005,3.2419
4.4038,1007,3.2484
4.4083,1005,3.2419
4.4128,1006,3.2452
4.4174,1005,3.2419
4.4228,1006,3.2452
4.4273,1006,3.2452
4.4319,1005,3.2419
4.4363,1003,3.2355
4.4409,1007,3.2484
4.4454,1006,3.2452
4.4499,1006,3.2452
4.4544,1004,3.2387
4.4589,1006,3.2452
4.4644,1006,3.2452
4.4689,1006,3.2452
4.4735,1005,3.2419
4.4779,1006,3.2452
4.4823,1005,3.2419
4.4867,1007,3.2484
4.4911,1005,3.2419
4.4955,1006,3.2452
4.4998,1007,3.2484
4.5041,1007,3.2484
4.5085,1007,3.2484
4.5129,1006,3.2452
4.5173,1006,3.2452
4.5217,1005,3.2419
4.5265,1005,3.2419
4.5309,1007,3.2484
4.5353,1004,3.2387
4.5396,1005,3.2419
4.5447,1007,3.2484
4.5491,1005,3.2419
4.5535,1005,3.2419
4.5580,1006,3.2452
4.5623,1007,3.2484
4.5668,1007,3.2484
4.5720,1006,3.2452
4.5764,1005,3.2419
4.5807,1005,3.2419
4.5851,1006,3.2452
4.5895,1005,3.2419
4.5939,1004,3.2387
4.5982,1005,3.2419
4.6026,1006,3.2452
4.6070,1007,3.2484
4.6118,1007,3.2484
4.6162,1007,3.2484
4.6205,1006,3.2452
4.6248,1007,3.2484
4.6296,1007,3.2484
4.6339,1008,3.2516
4.6383,1006,3.2452
4.6426,1007,3.2484
4.6469,1006,3.2452
4.6512,1007,3.2484
4.6556,1005,3.2419
4.6599,1007,3.2484
4.6642,1005,3.2419
4.6686,1007,3.2484
4.6729,1005,3.2419
4.6773,1007,3.2484
4.6816,1006,3.2452
4.6859,1005,3.2419
4.6902,1004,3.2387
4.6945,1007,3.2484
4.6989,1005,3.2419
4.7032,1007,3.2484
4.7074,1004,3.2387
4.7120,1007,3.2484
4.7169,1006,3.2452
4.7212,1006,3.2452
4.7256,1005,3.2419
4.7301,1006,3.2452
4.7345,1005,3.2419
4.7389,1007,3.2484
4.7433,1005,3.2419
4.7477,1007,3.2484
4.7520,1006,3.2452
4.7563,1006,3.2452
4.7607,1007,3.2484
4.7651,1006,3.2452
4.7695,1008,3.2516
4.7739,1005,3.2419
4.7783,1004,3.2387
4.7827,1006,3.2452
4.7870,1005,3.2419
4.7914,1007,3.2484
4.7959,1007,3.2484
4.8003,1006,3.2452
4.8047,1006,3.2452
4.8092,1006,3.2452
4.8139,1005,3.2419
4.8184,1007,3.2484
4.8229,1004,3.2387
4.8273,1006,3.2452
4.8316,1004,3.2387
4.8360,1006,3.2452
4.8404,1007,3.2484
4.8448,1005,3.2419
4.8492,1005,3.2419
4.8536,1006,3.2452
4.8580,1007,3.2484
4.8624,1005,3.2419
4.8668,1006,3.2452
4.8713,1007,3.2484
4.8757,1007,3.2484
4.8800,1005,3.2419
4.8845,1006,3.2452
4.8888,1005,3.2419
4.8931,1006,3.2452
4.8979,1006,3.2452
4.9023,1005,3.2419
4.9066,1007,3.2484
4.9109,1007,3.2484
4.9152,1006,3.2452
4.9196,1005,3.2419
4.9240,1004,3.2387
4.9283,1007,3.2484
4.9326,1006,3.2452
4.9369,1007,3.2484
4.9413,1007,3.2484
4.9457,1006,3.2452
4.9500,1005,3.2419
4.9544,1007,3.2484
4.9587,1005,3.2419
4.9630,1007,3.2484
4.9674,1006,3.2452
4.9718,1006,3.2452
4.9761,1007,3.2484
4.9805,1006,3.2452
4.9849,1004,3.2387
4.9892,1005,3.2419
4.9935,1005,3.2419
4.9978,1006,3.2452
5.0026,1007,3.2484
5.0071,1006,3.2452
5.0218,1006,3.2452
5.0263,1006,3.2452
5.0308,1007,3.2484
5.0355,1005,3.2419
5.0401,1005,3.2419
5.0446,1006,3.2452
5.0490,1007,3.2484
5.0535,1008,3.2516
5.0578,1007,3.2484
5.0622,1005,3.2419
5.0675,1007,3.2484
5.0720,1008,3.2516
5.0765,1006,3.2452
5.0809,1007,3.2484
5.0852,1006,3.2452
5.0897,1006,3.2452
5.0942,1006,3.2452
5.0987,1007,3.2484
5.1031,1005,3.2419
5.1075,1008,3.2516
5.1119,1007,3.2484
5.1163,1006,3.2452
5.1207,1006,3.2452
5.1257,1004,3.2387
5.1301,1006,3.2452
5.1344,1005,3.2419
5.1388,1005,3.2419
5.1432,1005,3.2419
5.1480,1006,3.2452
5.1524,1005,3.2419
5.1568,1007,3.2484
5.1611,1005,3.2419
5.1655,1007,3.2484
5.1699,1005,3.2419
5.1743,1005,3.2419
5.1787,1006,3.2452
5.1830,1006,3.2452
5.1888,1010,3.2581
5.1932,1005,3.2419
5.1976,1006,3.2452
5.2020,1005,3.2419
5.2064,1006,3.2452
5.2107,1005,3.2419
5.2152,1006,3.2452
5.2195,1005,3.2419
5.2240,1006,3.2452
5.2284,1007,3.2484
5.2327,1005,3.2419
5.2371,1007,3.2484
5.2414,1005,3.2419
5.2458,1006,3.2452
5.2501,1007,3.2484
5.2557,1006,3.2452
5.2600,1003,3.2355
5.2643,1006,3.2452
5.2692,1004,3.2387
5.2736,1006,3.2452
5.2779,1005,3.2419
5.2823,1005,3.2419
5.2866,1005,3.2419
5.2909,1006,3.2452
5.2952,1005,3.2419
5.2996,1006,3.2452
5.3039,1006,3.2452
5.3082,1006,3.2452
5.3125,1006,3.2452
5.3178,1006,3.2452
5.3222,1006,3.2452
5.3266,1005,3.2419
5.3311,1007,3.2484
5.3355,1006,3.2452
5.3399,1005,3.2419
5.3442,1006,3.2452
5.3495,1005,3.2419
5.3538,1006,3.2452
5.3582,1006,3.2452
5.3626,1007,3.2484
5.3669,1005,3.2419
5.3712,1005,3.2419
5.3759,1006,3.2452
5.3803,1006,3.2452
5.3847,1006,3.2452
5.3890,1006,3.2452
5.3933,1006,3.2452
5.3976,1007,3.2484
5.4020,1006,3.2452
5.4063,1005,3.2419
5.4106,1006,3.2452
5.4149,1006,3.2452
5.4193,1007,3.2484
5.4236,1006,3.2452
5.4280,1006,3.2452
5.4323,1006,3.2452
5.4366,1007,3.2484
5.4409,1006,3.2452
5.4453,1005,3.2419
5.4502,1005,3.2419
5.4547,1004,3.2387
5.4590,1005,3.2419
5.4634,1004,3.2387
5.4677,1005,3.2419
5.4720,1006,3.2452
5.4764,1004,3.2387
5.4807,1007,3.2484
5.4851,1006,3.2452
5.4894,1005,3.2419
5.4937,1004,3.2387
5.4980,1008,3.2516
5.5024,1005,3.2419
5.5068,1005,3.2419
5.5111,1005,3.2419
5.5154,1005,3.2419
5.5197,1006,3.2452
5.5240,1005,3.2419
5.5284,1005,3.2419
5.5328,1006,3.2452
5.5371,1005,3.2419
5.5417,1007,3.2484
5.5461,1006,3.2452
5.5509,1005,3.2419
5.5554,1005,3.2419
5.5598,1007,3.2484
5.5642,1007,3.2484
5.5687,1005,3.2419
5.5731,1006,3.2452
5.5775,1007,3.2484
5.5819,1003,3.2355
5.5863,1007,3.2484
5.5908,1006,3.2452
5.5953,1006,3.2452
5.5998,1006,3.2452
5.6042,1006,3.2452
5.6086,1007,3.2484
5.6129,1006,3.2452
5.6173,1006,3.2452
5.6216,1006,3.2452
5.6260,1007,3.2484
5.6305,1004,3.2387
5.6350,1000,3.2258
5.6394,1005,3.2419
5.6437,1006,3.2452
5.6481,1006,3.2452
5.6525,1004,3.2387
5.6569,1007,3.2484
5.6612,1005,3.2419
5.6657,1005,3.2419
5.6701,1006,3.2452
5.6744,1005,3.2419
5.6788,1006,3.2452
5.6831,1007,3.2484
5.6875,1005,3.2419
5.6918,1004,3.2387
5.6962,1004,3.2387
5.7005,1006,3.2452
5.7048,1006,3.2452
5.7091,1006,3.2452
5.7135,1006,3.2452
5.7178,1006,3.2452
5.7221,1006,3.2452
5.7264,1004,3.2387
5.7308,1006,3.2452
5.7353,1003,3.2355
5.7397,1005,3.2419
5.7440,1006,3.2452
5.7484,1007,3.2484
5.7528,1007,3.2484
5.7573,1005,3.2419
5.7617,1006,3.2452
5.7661,1006,3.2452
5.7705,1006,3.2452
5.7750,1006,3.2452
5.7794,1004,3.2387
5.7837,1007,3.2484
5.7881,1005,3.2419
5.7924,1006,3.2452
5.7969,1006,3.2452
5.8012,1006,3.2452
5.8056,1006,3.2452
5.8105,1007,3.2484
5.8150,1006,3.2452
5.8194,1006,3.2452
5.8237,1006,3.2452
5.8281,1006,3.2452
5.8326,1007,3.2484
5.8370,1007,3.2484
5.8413,1005,3.2419
5.8457,1005,3.2419
5.8501,1004,3.2387
5.8545,1006,3.2452
5.8589,1005,3.2419
5.8632,1006,3.2452
5.8677,1005,3.2419
5.8725,1006,3.2452
5.8769,1006,3.2452
5.8813,1005,3.2419
5.8857,1006,3.2452
5.8900,1006,3.2452
5.8943,1005,3.2419
5.8987,1006,3.2452
5.9030,1005,3.2419
5.9074,1006,3.2452
5.9117,1005,3.2419
5.9160,1005,3.2419
5.9204,1005,3.2419
5.9247,1006,3.2452
5.9290,1005,3.2419
5.9334,1007,3.2484
5.9386,1006,3.2452
5.9429,1007,3.2484
5.9473,1006,3.2452
5.9516,1007,3.2484
5.9559,1005,3.2419
5.9603,1006,3.2452
5.9647,1008,3.2516
5.9690,1006,3.2452
5.9733,1005,3.2419
5.9776,1006,3.2452
5.9820,1006,3.2452
5.9864,1008,3.2516
5.9907,1006,3.2452
5.9950,1008,3.2516
6.0003,1005,3.2419
6.0047,1007,3.2484
6.0090,1005,3.2419
6.0133,1005,3.2419
6.0176,1005,3.2419
6.0220,1006,3.2452
6.0263,1008,3.2516
6.0314,1004,3.2387
6.0357,1004,3.2387
6.0401,1007,3.2484
6.0445,1007,3.2484
6.0489,1007,3.2484
6.0538,1005,3.2419
6.0582,1005,3.2419
6.0626,1006,3.2452
6.0670,1006,3.2452
6.0713,1007,3.2484
6.0757,1005,3.2419
6.0801,1006,3.2452
6.0845,1005,3.2419
6.0889,1006,3.2452
6.0933,1006,3.2452
6.0976,1005,3.2419
6.1020,1005,3.2419
6.1064,1007,3.2484
6.1107,1003,3.2355
6.1151,1007,3.2484
6.1201,1005,3.2419
6.1245,1006,3.2452
6.1289,1006,3.2452
6.1333,1005,3.2419
6.1377,1006,3.2452
6.1420,1006,3.2452
6.1465,1007,3.2484
6.1508,1007,3.2484
6.1553,1006,3.2452
6.1597,1004,3.2387
6.1643,1006,3.2452
6.1687,1004,3.2387
6.1731,1006,3.2452
6.1775,1007,3.2484
6.1821,1005,3.2419
6.1866,1005,3.2419
6.1911,1006,3.2452
6.1956,1006,3.2452
6.2001,1007,3.2484
6.2044,1005,3.2419
6.2088,1005,3.2419
6.2132,1005,3.2419
6.2176,1006,3.2452
6.2219,1006,3.2452
6.2265,1007,3.2484
6.2310,1006,3.2452
6.2355,1004,3.2387
6.2399,1005,3.2419
6.2443,1006,3.2452
6.2487,1005,3.2419
6.2531,1007,3.2484
6.2575,1006,3.2452
6.2619,1005,3.2419
6.2663,1007,3.2484
6.2707,1005,3.2419
6.2752,1007,3.2484
6.2802,1006,3.2452
6.2847,1006,3.2452
6.2900,1006,3.2452
6.2943,1007,3.2484
6.2987,1005,3.2419
6.3030,1005,3.2419
6.3074,1006,3.2452
6.3118,1005,3.2419
6.3162,1006,3.2452
6.3205,1007,3.2484
6.3249,1005,3.2419
6.3295,1006,3.2452
6.3339,1007,3.2484
6.3383,1007,3.2484
6.3427,1007,3.2484
6.3477,1006,3.2452
6.3521,1006,3.2452
6.3565,1006,3.2452
6.3609,1005,3.2419
6.3653,1007,3.2484
6.3697,1005,3.2419
6.3741,1005,3.2419
6.3785,1005,3.2419
6.3828,1006,3.2452
6.3873,1006,3.2452
6.3916,1005,3.2419
6.3961,1007,3.2484
6.4006,1006,3.2452
6.4050,1007,3.2484
6.4097,1006,3.2452
6.4142,1007,3.2484
6.4185,1006,3.2452
6.4229,1006,3.2452
6.4272,1006,3.2452
6.4316,1006,3.2452
6.4360,1007,3.2484
6.4404,1007,3.2484
6.4448,1005,3.2419
6.4491,1006,3.2452
6.4535,1005,3.2419
6.4579,1007,3.2484
6.4623,1006,3.2452
6.4667,1007,3.2484
6.4719,1006,3.2452
6.4763,1006,3.2452
6.4806,1003,3.2355
6.4851,1006,3.2452
6.4896,1006,3.2452
6.4940,1007,3.2484
6.4985,1005,3.2419
6.5028,1006,3.2452
6.5071,1005,3.2419
6.5115,1006,3.2452
6.5159,1007,3.2484
6.5203,1006,3.2452
6.5253,1008,3.2516
6.5298,1007,3.2484
6.5343,1005,3.2419
6.5387,1005,3.2419
6.5431,1004,3.2387
6.5477,1005,3.2419
6.5521,1005,3.2419
6.5565,1007,3.2484
6.5609,1007,3.2484
6.5653,1007,3.2484
6.5696,1005,3.2419
6.5740,1007,3.2484
6.5792,1006,3.2452
6.5836,1005,3.2419
6.5880,1007,3.2484
6.5924,1007,3.2484
6.5967,1005,3.2419
6.6011,1005,3.2419
6.6055,1007,3.2484
6.6099,1006,3.2452
6.6143,1007,3.2484
6.6187,1005,3.2419
6.6232,1006,3.2452
6.6276,1007,3.2484
6.6319,1006,3.2452
6.6370,1007,3.2484
6.6415,1007,3.2484
6.6459,1007,3.2484
6.6503,1005,3.2419
6.6546,1004,3.2387
6.6590,1006,3.2452
6.6635,1005,3.2419
6.6678,1005,3.2419
6.6722,1005,3.2419
6.6766,1004,3.2387
6.6809,1007,3.2484
6.6854,1005,3.2419
6.6899,1006,3.2452
6.6943,1004,3.2387
6.6992,1006,3.2452
6.7037,1007,3.2484
6.7081,1005,3.2419
6.7125,1005,3.2419
6.7169,1005,3.2419
6.7213,1006,3.2452
6.7257,1005,3.2419
6.7301,1007,3.2484
6.7351,1005,3.2419
6.7395,1007,3.2484
6.7449,1007,3.2484
6.7494,1005,3.2419
6.7539,1005,3.2419
6.7583,1007,3.2484
6.7628,1005,3.2419
6.7672,1003,3.2355
6.7716,1005,3.2419
6.7760,1007,3.2484
6.7803,1006,3.2452
6.7846,1006,3.2452
6.7896,1006,3.2452
6.7940,1005,3.2419
6.7983,1006,3.2452
6.8026,1008,3.2516
6.8069,1005,3.2419
6.8112,1006,3.2452
6.8155,1008,3.2516
6.8198,1004,3.2387
6.8241,1005,3.2419
6.8283,1005,3.2419
6.8326,1005,3.2419
6.8368,1007,3.2484
6.8410,1007,3.2484
6.8453,1007,3.2484
6.8496,1007,3.2484
6.8538,1006,3.2452
6.8581,1007,3.2484
6.8625,1006,3.2452
6.8668,1007,3.2484
6.8710,1007,3.2484
6.8753,1005,3.2419
6.8795,1007,3.2484
6.8839,1004,3.2387
6.8882,1007,3.2484
6.8924,1007,3.2484
6.8966,1006,3.2452
6.9008,1008,3.2516
6.9050,1006,3.2452
6.9092,1006,3.2452
6.9134,1006,3.2452
6.9176,1005,3.2419
6.9218,1007,3.2484
6.9260,1007,3.2484
6.9302,1005,3.2419
6.9345,1007,3.2484
6.9387,1005,3.2419
6.9430,1005,3.2419
6.9473,1007,3.2484
6.9516,1003,3.2355
6.9559,1006,3.2452
6.9602,1005,3.2419
6.9645,1006,3.2452
6.9688,1005,3.2419
6.9731,1007,3.2484
6.9774,1003,3.2355
6.9816,1007,3.2484
6.9866,1007,3.2484
6.9908,1006,3.2452
6.9951,1006,3.2452
6.9993,1004,3.2387
7.0037,1004,3.2387
7.0080,1005,3.2419
7.0124,1007,3.2484
7.0169,1006,3.2452
7.0212,1004,3.2387
7.0256,1007,3.2484
7.0301,1005,3.2419
7.0345,1007,3.2484
7.0390,1007,3.2484
7.0435,1008,3.2516
7.0483,1006,3.2452
7.0526,1007,3.2484
7.0570,1004,3.2387
7.0613,1007,3.2484
7.0657,1006,3.2452
7.0700,1005,3.2419
7.0744,1005,3.2419
7.0788,1007,3.2484
7.0831,1006,3.2452
7.0878,1005,3.2419
7.0921,1007,3.2484
7.0965,1005,3.2419
7.1008,1004,3.2387
7.1052,1007,3.2484
7.1099,1007,3.2484
7.1143,1007,3.2484
7.1186,1006,3.2452
7.1230,1006,3.2452
7.1273,1004,3.2387
7.1317,1005,3.2419
7.1361,1007,3.2484
7.1405,1004,3.2387
7.1450,1005,3.2419
7.1494,1007,3.2484
7.1537,1005,3.2419
7.1581,1006,3.2452
7.1625,1006,3.2452
7.1668,1004,3.2387
7.1717,1007,3.2484
7.1760,1004,3.2387
7.1804,1006,3.2452
7.1848,1004,3.2387
7.1891,1007,3.2484
7.1934,1004,3.2387
7.1978,1005,3.2419
7.2021,1006,3.2452
7.2065,1008,3.2516
7.2108,1005,3.2419
7.2152,1005,3.2419
7.2196,1007,3.2484
7.2239,1005,3.2419
7.2283,1005,3.2419
7.2334,1005,3.2419
7.2378,1007,3.2484
7.2421,1006,3.2452
7.2465,1007,3.2484
7.2509,1006,3.2452
7.2553,1007,3.2484
7.2600,1006,3.2452
7.2644,1007,3.2484
7.2687,1007,3.2484
7.2731,1005,3.2419
7.2775,1004,3.2387
7.2818,1005,3.2419
7.2862,1006,3.2452
7.2905,1006,3.2452
7.2951,1006,3.2452
7.2994,1007,3.2484
7.3038,1007,3.2484
7.3082,1005,3.2419
7.3125,1005,3.2419
7.3169,1006,3.2452
7.3212,1005,3.2419
7.3256,1006,3.2452
7.3299,1004,3.2387
7.3343,1004,3.2387
7.3387,1004,3.2387
7.3431,1005,3.2419
7.3475,1005,3.2419
7.3519,1004,3.2387
7.3568,1007,3.2484
7.3611,1006,3.2452
7.3655,1006,3.2452
7.3698,1004,3.2387
7.3742,1003,3.2355
7.3785,1007,3.2484
7.3829,1006,3.2452
7.3873,1003,3.2355
7.3916,1005,3.2419
7.3960,1005,3.2419
7.4003,1007,3.2484
7.4047,1007,3.2484
7.4090,1004,3.2387
7.4134,1007,3.2484
7.4177,1006,3.2452
7.4226,1007,3.2484
7.4270,1005,3.2419
7.4313,1004,3.2387
7.4357,1008,3.2516
7.4400,1007,3.2484
7.4444,1004,3.2387
7.4488,1007,3.2484
7.4531,1005,3.2419
7.4574,1006,3.2452
7.4617,1007,3.2484
7.4660,1004,3.2387
7.4704,1007,3.2484
7.4747,1004,3.2387
7.4790,1006,3.2452
7.4834,1007,3.2484
7.4877,1003,3.2355
7.4920,1006,3.2452
7.4963,1006,3.2452
7.5006,1007,3.2484
7.5049,1006,3.2452
7.5093,1005,3.2419
7.5136,1006,3.2452
7.5179,1006,3.2452
7.5222,1007,3.2484
7.5266,1005,3.2419
7.5309,1006,3.2452
7.5352,1006,3.2452
7.5395,1008,3.2516
7.5438,1006,3.2452
7.5482,1007,3.2484
7.5525,1007,3.2484
7.5568,1005,3.2419
7.5612,1006,3.2452
7.5655,1005,3.2419
7.5698,1005,3.2419
7.5740,1004,3.2387
7.5782,1006,3.2452
7.5824,1007,3.2484
7.5867,1007,3.2484
7.5908,1007,3.2484
7.5951,1006,3.2452
7.5993,1005,3.2419
7.6035,1007,3.2484
7.6077,1004,3.2387
7.6119,1004,3.2387
7.6161,1006,3.2452
7.6203,1007,3.2484
7.6245,1007,3.2484
7.6288,1007,3.2484
7.6330,1004,3.2387
7.6372,1007,3.2484
7.6415,1005,3.2419
7.6457,1007,3.2484
7.6500,1005,3.2419
7.6542,1007,3.2484
7.6583,1004,3.2387
7.6625,1005,3.2419
7.6668,1006,3.2452
7.6710,1004,3.2387
7.6753,1007,3.2484
7.6795,1007,3.2484
7.6842,1006,3.2452
7.6885,1007,3.2484
7.6929,1006,3.2452
7.6972,1003,3.2355
7.7013,1007,3.2484
7.7056,1005,3.2419
7.7098,1007,3.2484
7.7140,1005,3.2419
7.7182,1007,3.2484
7.7224,1005,3.2419
7.7266,1005,3.2419
7.7308,1005,3.2419
7.7350,1007,3.2484
7.7392,1007,3.2484
7.7434,1004,3.2387
7.7477,1007,3.2484
7.7519,1006,3.2452
7.7561,1007,3.2484
7.7603,1006,3.2452
7.7645,1008,3.2516
7.7688,1005,3.2419
7.7731,1006,3.2452
7.7773,1004,3.2387
7.7815,1005,3.2419
7.7862,1007,3.2484
7.7904,1006,3.2452
7.7947,1006,3.2452
7.7990,1005,3.2419
7.8031,1007,3.2484
7.8074,1005,3.2419
7.8116,1006,3.2452
7.8158,1007,3.2484
7.8200,1007,3.2484
7.8242,1006,3.2452
7.8284,1006,3.2452
7.8326,1006,3.2452
7.8369,1004,3.2387
7.8410,1006,3.2452
7.8453,1005,3.2419
7.8495,1003,3.2355
7.8538,1005,3.2419
7.8580,1004,3.2387
7.8623,1006,3.2452
7.8665,1006,3.2452
7.8707,1007,3.2484
7.8750,1005,3.2419
7.8792,1006,3.2452
7.8834,1005,3.2419
7.8876,1005,3.2419
7.8924,1006,3.2452
7.8966,1007,3.2484
7.9008,1005,3.2419
7.9050,1007,3.2484
7.9092,1006,3.2452
7.9135,1006,3.2452
7.9177,1004,3.2387
7.9218,1007,3.2484
7.9260,1006,3.2452
7.9302,1006,3.2452
7.9345,1007,3.2484
7.9387,1005,3.2419
7.9428,1005,3.2419
7.9470,1004,3.2387
7.9513,1007,3.2484
7.9556,1006,3.2452
7.9598,1003,3.2355
7.9640,1007,3.2484
7.9683,1007,3.2484
7.9725,1006,3.2452
7.9767,1005,3.2419
7.9809,1006,3.2452
7.9851,1006,3.2452
7.9893,1004,3.2387
7.9935,1003,3.2355
7.9977,1006,3.2452
8.0020,1005,3.2419
8.0062,1005,3.2419
8.0107,1004,3.2387
8.0150,1003,3.2355
8.0192,1005,3.2419
8.0235,1006,3.2452
8.0279,1006,3.2452
8.0322,1007,3.2484
8.0366,1007,3.2484
8.0409,1007,3.2484
8.0455,1007,3.2484
8.0498,1004,3.2387
8.0541,1007,3.2484
8.0584,1005,3.2419
8.0631,1007,3.2484
8.0675,1004,3.2387
8.0724,1007,3.2484
8.0767,1005,3.2419
8.0810,1004,3.2387
8.0852,1007,3.2484
8.0895,1006,3.2452
8.0937,1006,3.2452
8.0980,1005,3.2419
8.1023,1004,3.2387
8.1066,1004,3.2387
8.1108,1015,3.2742
8.1151,1005,3.2419
8.1193,1006,3.2452
8.1235,1005,3.2419
8.1277,1006,3.2452
8.1319,1005,3.2419
8.1361,1007,3.2484
8.1403,1006,3.2452
8.1446,1005,3.2419
8.1488,1006,3.2452
8.1530,1005,3.2419
8.1572,1007,3.2484
8.1614,1004,3.2387
8.1657,1007,3.2484
8.1699,1003,3.2355
8.1744,1004,3.2387
8.1786,1007,3.2484
8.1828,1007,3.2484
8.1870,1004,3.2387
8.1912,1005,3.2419
8.1954,1007,3.2484
8.1996,1004,3.2387
8.2039,1006,3.2452
8.2082,1004,3.2387
8.2125,1006,3.2452
8.2168,1004,3.2387
8.2211,1007,3.2484
8.2254,1007,3.2484
8.2297,1007,3.2484
8.2339,1005,3.2419
8.2382,1006,3.2452
8.2426,1008,3.2516
8.2468,1005,3.2419
8.2511,1004,3.2387
8.2554,1005,3.2419
8.2597,1006,3.2452
8.2640,1007,3.2484
8.2683,1007,3.2484
8.2725,1006,3.2452
8.2769,1007,3.2484
8.2811,1007,3.2484
8.2853,1007,3.2484
8.2895,1005,3.2419
8.2937,1003,3.2355
8.2979,1007,3.2484
8.3022,1006,3.2452
8.3064,1005,3.2419
8.3106,1004,3.2387
8.3148,1005,3.2419
8.3190,1006,3.2452
8.3233,1005,3.2419
8.3275,1004,3.2387
8.3318,1007,3.2484
8.3360,1007,3.2484
8.3403,1006,3.2452
8.3445,1007,3.2484
8.3488,1005,3.2419
8.3531,1006,3.2452
8.3574,1006,3.2452
8.3616,1005,3.2419
8.3660,1004,3.2387
8.3703,1004,3.2387
8.3746,1005,3.2419
8.3792,1006,3.2452
8.3834,1004,3.2387
8.3877,1005,3.2419
8.3920,1005,3.2419
8.3964,1007,3.2484
8.4007,1005,3.2419
8.4050,1006,3.2452
8.4093,1006,3.2452
8.4135,1004,3.2387
8.4177,1005,3.2419
8.4220,1005,3.2419
8.4262,1006,3.2452
8.4305,1006,3.2452
8.4348,1006,3.2452
8.4390,1004,3.2387
8.4433,1007,3.2484
8.4476,1007,3.2484
8.4518,1007,3.2484
8.4561,1005,3.2419
8.4603,1005,3.2419
8.4651,1006,3.2452
8.4693,1006,3.2452
8.4735,1004,3.2387
8.4777,1007,3.2484
8.4819,1006,3.2452
8.4861,1005,3.2419
8.4903,1004,3.2387
8.4945,1007,3.2484
8.4987,1007,3.2484
8.5030,1005,3.2419
8.5072,1007,3.2484
8.5114,1006,3.2452
8.5157,1005,3.2419
8.5200,1004,3.2387
8.5242,1008,3.2516
8.5284,1007,3.2484
8.5326,1007,3.2484
8.5369,1007,3.2484
8.5411,1006,3.2452
8.5454,1006,3.2452
8.5498,1005,3.2419
8.5541,1007,3.2484
8.5584,1007,3.2484
8.5632,1006,3.2452
8.5675,1007,3.2484
8.5718,1005,3.2419
8.5761,1005,3.2419
8.5803,1004,3.2387
8.5847,1006,3.2452
8.5889,1006,3.2452
8.5931,1007,3.2484
8.5973,1004,3.2387
8.6015,1004,3.2387
8.6058,1003,3.2355
8.6100,1006,3.2452
8.6142,1006,3.2452
8.6184,1006,3.2452
8.6226,1005,3.2419
8.6268,1005,3.2419
8.6311,1006,3.2452
8.6354,1004,3.2387
8.6397,1006,3.2452
8.6439,1005,3.2419
8.6481,1007,3.2484
8.6524,1004,3.2387
8.6567,1007,3.2484
8.6610,1006,3.2452
8.6656,1004,3.2387
8.6699,1005,3.2419
8.6742,1006,3.2452
8.6785,1007,3.2484
8.6828,1007,3.2484
8.6871,1007,3.2484
8.6914,1007,3.2484
8.6957,1005,3.2419
8.7003,1007,3.2484
8.7045,1006,3.2452
8.7088,1006,3.2452
8.7131,1007,3.2484
8.7173,1005,3.2419
8.7216,1007,3.2484
8.7259,1006,3.2452
8.7302,1007,3.2484
8.7344,1004,3.2387
8.7386,1004,3.2387
8.7428,1007,3.2484
8.7473,1004,3.2387
8.7516,1006,3.2452
8.7558,1007,3.2484
8.7600,1006,3.2452
8.7642,1004,3.2387
8.7684,1007,3.2484
8.7727,1004,3.2387
8.7769,1006,3.2452
8.7811,1005,3.2419
8.7853,1007,3.2484
8.7895,1007,3.2484
8.7938,1005,3.2419
8.7980,1007,3.2484
8.8022,1007,3.2484
8.8065,1004,3.2387
8.8107,1003,3.2355
8.8150,1006,3.2452
8.8192,1005,3.2419
8.8234,1006,3.2452
8.8276,1003,3.2355
8.8319,1006,3.2452
8.8362,1007,3.2484
8.8405,1007,3.2484
8.8448,1006,3.2452
8.8495,1006,3.2452
8.8538,1005,3.2419
8.8582,1005,3.2419
8.8625,1007,3.2484
8.8668,1007,3.2484
8.8711,1006,3.2452
8.8754,1006,3.2452
8.8796,1006,3.2452
8.8839,1004,3.2387
8.8881,1006,3.2452
8.8924,1007,3.2484
8.8967,1007,3.2484
8.9009,1007,3.2484
8.9052,1004,3.2387
8.9095,1006,3.2452
8.9138,1004,3.2387
8.9181,1005,3.2419
8.9224,1005,3.2419
8.9267,1006,3.2452
8.9314,1005,3.2419
8.9357,1006,3.2452
8.9399,1004,3.2387
8.9441,1006,3.2452
8.9483,1007,3.2484
8.9525,1007,3.2484
8.9568,1007,3.2484
8.9610,1007,3.2484
8.9652,1005,3.2419
8.9694,1006,3.2452
8.9737,1007,3.2484
8.9779,1004,3.2387
8.9821,1004,3.2387
8.9863,1005,3.2419
8.9905,1006,3.2452
8.9948,1006,3.2452
8.9990,1007,3.2484
9.0032,1004,3.2387
9.0075,1006,3.2452
9.0117,1005,3.2419
9.0162,1006,3.2452
9.0204,1006,3.2452
9.0246,1005,3.2419
9.0288,1006,3.2452
9.0334,1008,3.2516
9.0377,1007,3.2484
9.0419,1006,3.2452
9.0460,1007,3.2484
9.0502,1005,3.2419
9.0544,1007,3.2484
9.0587,1006,3.2452
9.0629,1006,3.2452
9.0672,1005,3.2419
9.0714,1005,3.2419
9.0757,1007,3.2484
9.0800,1007,3.2484
9.0844,1007,3.2484
9.0887,1004,3.2387
9.0930,1006,3.2452
9.0973,1007,3.2484
9.1016,1004,3.2387
9.1059,1007,3.2484
9.1102,1004,3.2387
9.1153,1007,3.2484
9.1197,1006,3.2452
9.1239,1003,3.2355
9.1282,1007,3.2484
9.1324,1005,3.2419
9.1369,1006,3.2452
9.1412,1004,3.2387
9.1455,1006,3.2452
9.1498,1007,3.2484
9.1540,1004,3.2387
9.1584,1005,3.2419
9.1627,1007,3.2484
9.1670,1007,3.2484
9.1717,1004,3.2387
9.1766,1005,3.2419
9.1808,1004,3.2387
9.1850,1007,3.2484
9.1892,1006,3.2452
9.1934,1006,3.2452
9.1976,1004,3.2387
9.2018,1004,3.2387
9.2061,1007,3.2484
9.2103,1005,3.2419
9.2145,1006,3.2452
9.2187,1004,3.2387
9.2229,1007,3.2484
9.2272,1004,3.2387
9.2315,1006,3.2452
9.2357,1003,3.2355
9.2400,1005,3.2419
9.2443,1006,3.2452
9.2485,1006,3.2452
9.2527,1007,3.2484
9.2569,1005,3.2419
9.2612,1003,3.2355
9.2654,1006,3.2452
9.2696,1006,3.2452
9.2739,1007,3.2484
9.2786,1007,3.2484
9.2828,1006,3.2452
9.2870,1006,3.2452
9.2912,1006,3.2452
9.2954,1007,3.2484
9.2997,1005,3.2419
9.3039,1005,3.2419
9.3089,1004,3.2387
9.3133,1005,3.2419
9.3176,1005,3.2419
9.3219,1006,3.2452
9.3263,1004,3.2387
9.3306,1005,3.2419
9.3348,1006,3.2452
9.3391,1005,3.2419
9.3433,1007,3.2484
9.3476,1006,3.2452
9.3519,1007,3.2484
9.3562,1005,3.2419
9.3606,1007,3.2484
9.3648,1005,3.2419
9.3690,1004,3.2387
9.3733,1007,3.2484
9.3775,1005,3.2419
9.3817,1004,3.2387
9.3860,1006,3.2452
9.3902,1007,3.2484
9.3944,1006,3.2452
9.3986,1005,3.2419
9.4028,1006,3.2452
9.4071,1007,3.2484
9.4113,1006,3.2452
9.4156,1008,3.2516
9.4199,1004,3.2387
9.4242,1007,3.2484
9.4285,1004,3.2387
9.4329,1006,3.2452
9.4372,1004,3.2387
9.4414,1007,3.2484
9.4459,1007,3.2484
9.4503,1004,3.2387
9.4547,1004,3.2387
9.4590,1007,3.2484
9.4634,1005,3.2419
9.4677,1005,3.2419
9.4720,1005,3.2419
9.4763,1004,3.2387
9.4806,1004,3.2387
9.4848,1007,3.2484
9.4892,1007,3.2484
9.4935,1003,3.2355
9.4979,1005,3.2419
9.5023,1005,3.2419
9.5067,1007,3.2484
9.5110,1006,3.2452
9.5154,1005,3.2419
9.5199,1005,3.2419
9.5249,1005,3.2419
9.5293,1003,3.2355
9.5337,1006,3.2452
9.5382,1004,3.2387
9.5426,1004,3.2387
9.5469,1006,3.2452
9.5513,1003,3.2355
9.5556,1007,3.2484
9.5599,1007,3.2484
9.5643,1006,3.2452
9.5692,1006,3.2452
9.5736,1007,3.2484
9.5779,1007,3.2484
9.5823,1007,3.2484
9.5866,1006,3.2452
9.5909,1005,3.2419
9.5953,1005,3.2419
9.5996,1006,3.2452
9.6040,1005,3.2419
9.6083,1007,3.2484
9.6127,1005,3.2419
9.6170,1005,3.2419
9.6213,1004,3.2387
9.6257,1006,3.2452
9.6301,1006,3.2452
9.6344,1005,3.2419
9.6388,1006,3.2452
9.6431,1006,3.2452
9.6482,1006,3.2452
9.6525,1004,3.2387
9.6569,1006,3.2452
9.6612,1007,3.2484
9.6656,1006,3.2452
9.6700,1004,3.2387
9.6743,1008,3.2516
9.6787,1006,3.2452
9.6830,1008,3.2516
9.6874,1005,3.2419
9.6917,1007,3.2484
9.6961,1006,3.2452
9.7005,1004,3.2387
9.7048,1007,3.2484
9.7097,1004,3.2387
9.7140,1004,3.2387
9.7184,1006,3.2452
9.7227,1007,3.2484
9.7270,1006,3.2452
9.7314,1007,3.2484
9.7357,1003,3.2355
9.7401,1007,3.2484
9.7444,1007,3.2484
9.7488,1004,3.2387
9.7532,1005,3.2419
9.7576,1007,3.2484
9.7620,1005,3.2419
9.7664,1004,3.2387
9.7712,1007,3.2484
9.7756,1004,3.2387
9.7799,1007,3.2484
9.7843,1007,3.2484
9.7886,1005,3.2419
9.7930,1006,3.2452
9.7974,1006,3.2452
9.8017,1006,3.2452
9.8061,1006,3.2452
9.8104,1007,3.2484
9.8148,1007,3.2484
9.8192,1004,3.2387
9.8235,1005,3.2419
9.8279,1005,3.2419
9.8330,1006,3.2452
9.8374,1005,3.2419
9.8417,1004,3.2387
9.8461,1004,3.2387
9.8504,1004,3.2387
9.8548,1004,3.2387
9.8599,1006,3.2452
9.8642,1006,3.2452
9.8686,1004,3.2387
9.8729,1004,3.2387
9.8774,1005,3.2419
9.8818,1004,3.2387
9.8862,1004,3.2387
9.8905,1007,3.2484
9.8949,1006,3.2452
9.8992,1005,3.2419
9.9036,1007,3.2484
9.9080,1004,3.2387
9.9124,1006,3.2452
9.9168,1005,3.2419
9.9212,1007,3.2484
9.9256,1004,3.2387
9.9300,1004,3.2387
9.9343,1005,3.2419
9.9387,1006,3.2452
9.9431,1007,3.2484
9.9475,1004,3.2387
9.9518,1007,3.2484
9.9563,1005,3.2419
9.9609,1005,3.2419
9.9652,1007,3.2484
9.9695,1007,3.2484
9.9739,1007,3.2484
9.9782,1006,3.2452
9.9826,1004,3.2387
9.9869,1006,3.2452
9.9912,1006,3.2452
9.9956,1006,3.2452
9.9999,1005,3.2419
10.0046,1005,3.2419
10.0172,1006,3.2452
10.0227,1004,3.2387
10.0282,1004,3.2387
10.0326,1006,3.2452
10.0369,1006,3.2452
10.0412,1004,3.2387
10.0456,1007,3.2484
10.0499,1006,3.2452
10.0542,1003,3.2355
10.0592,1005,3.2419
10.0635,1007,3.2484
10.0678,1007,3.2484
10.0721,1005,3.2419
10.0764,1007,3.2484
10.0808,1005,3.2419
10.0851,1006,3.2452
10.0894,1004,3.2387
10.0938,1005,3.2419
10.0981,1003,3.2355
10.1024,1004,3.2387
10.1067,1007,3.2484
10.1110,1005,3.2419
10.1154,1004,3.2387
10.1197,1007,3.2484
10.1241,1007,3.2484
10.1284,1006,3.2452
10.1327,1006,3.2452
10.1371,1004,3.2387
10.1414,1007,3.2484
10.1457,1005,3.2419
10.1500,1006,3.2452
10.1543,1006,3.2452
10.1585,1004,3.2387
10.1629,1008,3.2516
10.1673,1006,3.2452
10.1718,1007,3.2484
10.1761,1005,3.2419
10.1804,1007,3.2484
10.1847,1007,3.2484
10.1890,1004,3.2387
10.1933,1004,3.2387
10.1975,1004,3.2387
10.2018,1006,3.2452
10.2066,1006,3.2452
10.2109,1006,3.2452
10.2152,1005,3.2419
10.2194,1008,3.2516
10.2238,1006,3.2452
10.2280,1006,3.2452
10.2323,1005,3.2419
10.2366,1007,3.2484
10.2409,1006,3.2452
10.2452,1004,3.2387
10.2495,1008,3.2516
10.2537,1006,3.2452
10.2580,1005,3.2419
10.2622,1003,3.2355
10.2665,1007,3.2484
10.2708,1006,3.2452
10.2751,1006,3.2452
10.2793,1007,3.2484
10.2836,1005,3.2419
10.2884,1006,3.2452
10.2927,1007,3.2484
10.2970,1008,3.2516
10.3013,1003,3.2355
10.3056,1006,3.2452
10.3099,1007,3.2484
10.3141,1006,3.2452
10.3183,1007,3.2484
10.3226,1005,3.2419
10.3269,1004,3.2387
10.3312,1007,3.2484
10.3354,1006,3.2452
10.3397,1005,3.2419
10.3439,1005,3.2419
10.3482,1005,3.2419
10.3524,1003,3.2355
10.3567,1005,3.2419
10.3609,1006,3.2452
10.3651,1005,3.2419
10.3696,1006,3.2452
10.3739,1004,3.2387
10.3781,1004,3.2387
10.3823,1007,3.2484
10.3865,1007,3.2484
10.3908,1005,3.2419
10.3950,1003,3.2355
10.3992,1004,3.2387
10.4033,1006,3.2452
10.4075,1006,3.2452
10.4118,1007,3.2484
10.4160,1006,3.2452
10.4202,1006,3.2452
10.4245,1004,3.2387
10.4288,1007,3.2484
10.4332,1007,3.2484
10.4374,1007,3.2484
10.4417,1006,3.2452
10.4460,1005,3.2419
10.4503,1006,3.2452
10.4546,1005,3.2419
10.4593,1004,3.2387
10.4639,1006,3.2452
10.4685,1006,3.2452
10.4728,1004,3.2387
10.4771,1007,3.2484
10.4814,1004,3.2387
10.4856,1006,3.2452
10.4899,1005,3.2419
10.4941,1006,3.2452
10.4984,1007,3.2484
10.5026,1006,3.2452
10.5069,1007,3.2484
10.5112,1007,3.2484
10.5155,1007,3.2484
10.5198,1005,3.2419
10.5241,1005,3.2419
10.5285,1007,3.2484
10.5329,1007,3.2484
10.5372,1005,3.2419
10.5415,1006,3.2452
10.5458,1007,3.2484
10.5504,1005,3.2419
10.5548,1007,3.2484
10.5591,1005,3.2419
10.5634,1007,3.2484
10.5677,1006,3.2452
10.5719,1007,3.2484
10.5762,1006,3.2452
10.5806,1005,3.2419
10.5849,1007,3.2484
10.5892,1006,3.2452
10.5935,1005,3.2419
10.5979,1007,3.2484
10.6022,1003,3.2355
10.6064,1006,3.2452
10.6107,1007,3.2484
10.6150,1006,3.2452
10.6193,1007,3.2484
10.6235,1007,3.2484
10.6278,1007,3.2484
10.6325,1007,3.2484
10.6368,1005,3.2419
10.6412,1005,3.2419
10.6454,1005,3.2419
10.6497,1007,3.2484
10.6540,1006,3.2452
10.6583,1006,3.2452
10.6625,1007,3.2484
10.6668,1004,3.2387
10.6710,1006,3.2452
10.6753,1004,3.2387
10.6796,1006,3.2452
10.6838,1005,3.2419
10.6881,1006,3.2452
10.6923,1007,3.2484
10.6967,1007,3.2484
10.7010,1007,3.2484
10.7053,1006,3.2452
10.7096,1007,3.2484
10.7144,1004,3.2387
10.7187,1006,3.2452
10.7230,1005,3.2419
10.7273,1007,3.2484
10.7317,1004,3.2387
10.7360,1007,3.2484
10.7403,1003,3.2355
10.7445,1007,3.2484
10.7487,1007,3.2484
10.7529,1007,3.2484
10.7571,1007,3.2484
10.7613,1007,3.2484
10.7659,1006,3.2452
10.7702,1004,3.2387
10.7745,1004,3.2387
10.7788,1005,3.2419
10.7831,1006,3.2452
10.7876,1006,3.2452
10.7919,1005,3.2419
10.7962,1007,3.2484
10.8005,1006,3.2452
10.8047,1007,3.2484
10.8089,1005,3.2419
10.8131,1006,3.2452
10.8173,1006,3.2452
10.8215,1007,3.2484
10.8258,1005,3.2419
10.8300,1006,3.2452
10.8342,1007,3.2484
10.8384,1006,3.2452
10.8427,1007,3.2484
10.8469,1006,3.2452
10.8511,1008,3.2516
10.8553,1006,3.2452
10.8595,1005,3.2419
10.8638,1006,3.2452
10.8680,1005,3.2419
10.8722,1005,3.2419
10.8764,1005,3.2419
10.8807,1006,3.2452
10.8849,1007,3.2484
10.8891,1007,3.2484
10.8933,1003,3.2355
10.8975,1006,3.2452
10.9017,1005,3.2419
10.9060,1004,3.2387
10.9102,1004,3.2387
10.9144,1007,3.2484
10.9188,1005,3.2419
10.9231,1006,3.2452
10.9273,1004,3.2387
10.9315,1006,3.2452
10.9357,1007,3.2484
10.9400,1006,3.2452
10.9442,1007,3.2484
10.9484,1004,3.2387
10.9526,1005,3.2419
10.9568,1004,3.2387
10.9610,1005,3.2419
10.9653,1005,3.2419
10.9695,1006,3.2452
10.9736,1006,3.2452
10.9779,1007,3.2484
10.9821,1006,3.2452
10.9864,1006,3.2452
10.9906,1006,3.2452
10.9948,1005,3.2419
10.9989,1005,3.2419
11.0032,1006,3.2452
11.0074,1006,3.2452
11.0116,1006,3.2452
11.0158,1007,3.2484
11.0200,1006,3.2452
11.0247,1006,3.2452
11.0290,1004,3.2387
11.0333,1005,3.2419
11.0376,1005,3.2419
11.0419,1007,3.2484
11.0462,1006,3.2452
11.0505,1007,3.2484
11.0548,1007,3.2484
11.0590,1006,3.2452
11.0633,1005,3.2419
11.0676,1004,3.2387
11.0718,1005,3.2419
11.0761,1006,3.2452
11.0804,1007,3.2484
11.0847,1004,3.2387
11.0890,1004,3.2387
11.0933,1007,3.2484
11.0976,1004,3.2387
11.1018,1007,3.2484
11.1061,1006,3.2452
11.1104,1004,3.2387
11.1147,1006,3.2452
11.1190,1006,3.2452
11.1232,1007,3.2484
11.1275,1004,3.2387
11.1318,1006,3.2452
11.1361,1005,3.2419
11.1403,1007,3.2484
11.1446,1006,3.2452
11.1489,1005,3.2419
11.1532,1005,3.2419
11.1575,1004,3.2387
11.1617,1006,3.2452
11.1660,1007,3.2484
11.1703,1004,3.2387
11.1745,1006,3.2452
11.1788,1004,3.2387
11.1831,1005,3.2419
11.1874,1007,3.2484
11.1917,1006,3.2452
11.1960,1006,3.2452
11.2002,1007,3.2484
11.2052,1006,3.2452
11.2096,1007,3.2484
11.2138,1004,3.2387
11.2181,1006,3.2452
11.2224,1006,3.2452
11.2267,1006,3.2452
11.2310,1005,3.2419
11.2353,1008,3.2516
11.2395,1005,3.2419
11.2437,1004,3.2387
11.2480,1005,3.2419
11.2523,1003,3.2355
11.2565,1005,3.2419
11.2608,1007,3.2484
11.2650,1004,3.2387
11.2693,1006,3.2452
11.2735,1007,3.2484
11.2778,1003,3.2355
11.2821,1005,3.2419
11.2870,1007,3.2484
11.2912,1007,3.2484
11.2955,1006,3.2452
11.2998,1007,3.2484
11.3040,1006,3.2452
11.3083,1004,3.2387
11.3126,1005,3.2419
11.3168,1006,3.2452
11.3211,1007,3.2484
11.3254,1006,3.2452
11.3296,1004,3.2387
11.3339,1007,3.2484
11.3382,1006,3.2452
11.3424,1005,3.2419
11.3467,1007,3.2484
11.3509,1004,3.2387
11.3552,1006,3.2452
11.3595,1004,3.2387
11.3637,1004,3.2387
11.3679,1005,3.2419
11.3722,1005,3.2419
11.3767,1006,3.2452
11.3810,1005,3.2419
11.3852,1004,3.2387
11.3895,1005,3.2419
11.3938,1004,3.2387
11.3981,1007,3.2484
11.4023,1006,3.2452
11.4066,1006,3.2452
11.4109,1005,3.2419
11.4152,1007,3.2484
11.4194,1003,3.2355
11.4237,1005,3.2419
11.4279,1004,3.2387
11.4322,1007,3.2484
11.4365,1007,3.2484
11.4408,1007,3.2484
11.4450,1007,3.2484
11.4493,1006,3.2452
11.4535,1005,3.2419
11.4578,1005,3.2419
11.4620,1007,3.2484
11.4662,1005,3.2419
11.4704,1005,3.2419
11.4752,1007,3.2484
11.4794,1007,3.2484
11.4837,1006,3.2452
11.4879,1007,3.2484
11.4921,1004,3.2387
11.4964,1005,3.2419
11.5007,1005,3.2419
11.5050,1004,3.2387
11.5093,1005,3.2419
11.5136,1006,3.2452
11.5179,1006,3.2452
11.5223,1007,3.2484
11.5266,1007,3.2484
11.5309,1008,3.2516
11.5353,1006,3.2452
11.5396,1006,3.2452
11.5439,1007,3.2484
11.5482,1004,3.2387
11.5529,1004,3.2387
11.5572,1006,3.2452
11.5614,1006,3.2452
11.5657,1005,3.2419
11.5699,1006,3.2452
11.5742,1004,3.2387
11.5785,1004,3.2387
11.5828,1006,3.2452
11.5870,1004,3.2387
11.5913,1006,3.2452
11.5956,1007,3.2484
11.5999,1006,3.2452
11.6042,1007,3.2484
11.6085,1005,3.2419
11.6127,1006,3.2452
11.6169,1005,3.2419
11.6211,1007,3.2484
11.6253,1006,3.2452
11.6295,1005,3.2419
11.6338,1005,3.2419
11.6381,1006,3.2452
11.6423,1005,3.2419
11.6465,1004,3.2387
11.6507,1004,3.2387
11.6552,1006,3.2452
11.6594,1004,3.2387
11.6636,1006,3.2452
11.6678,1006,3.2452
11.6720,1006,3.2452
11.6762,1006,3.2452
11.6804,1006,3.2452
11.6848,1005,3.2419
11.6889,1004,3.2387
11.6931,1006,3.2452
11.6973,1005,3.2419
11.7016,1004,3.2387
11.7058,1005,3.2419
11.7100,1006,3.2452
11.7142,1005,3.2419
11.7184,1007,3.2484
11.7226,1004,3.2387
11.7268,1007,3.2484
11.7310,1008,3.2516
11.7353,1005,3.2419
11.7395,1004,3.2387
11.7437,1004,3.2387
11.7479,1004,3.2387
11.7521,1007,3.2484
11.7563,1007,3.2484
11.7605,1007,3.2484
11.7648,1005,3.2419
11.7691,1006,3.2452
11.7734,1007,3.2484
11.7778,1006,3.2452
11.7821,1006,3.2452
11.7865,1007,3.2484
11.7907,1006,3.2452
11.7951,1005,3.2419
11.7994,1007,3.2484
11.8038,1004,3.2387
11.8081,1004,3.2387
11.8124,1006,3.2452
11.8166,1006,3.2452
11.8209,1006,3.2452
11.8252,1006,3.2452
11.8298,1005,3.2419
11.8341,1007,3.2484
11.8384,1007,3.2484
11.8426,1006,3.2452
11.8469,1004,3.2387
11.8512,1007,3.2484
11.8556,1003,3.2355
11.8599,1006,3.2452
11.8641,1007,3.2484
11.8684,1004,3.2387
11.8727,1005,3.2419
11.8769,1005,3.2419
11.8812,1005,3.2419
11.8855,1007,3.2484
11.8897,1004,3.2387
11.8940,1006,3.2452
11.8983,1006,3.2452
11.9025,1003,3.2355
11.9068,1006,3.2452
11.9109,1004,3.2387
11.9152,1005,3.2419
11.9193,1004,3.2387
11.9236,1007,3.2484
11.9279,1004,3.2387
11.9322,1004,3.2387
11.9365,1005,3.2419
11.9408,1004,3.2387
11.9456,1005,3.2419
11.9498,1005,3.2419
11.9540,1004,3.2387
11.9582,1007,3.2484
11.9624,1006,3.2452
11.9667,1003,3.2355
11.9709,1004,3.2387
11.9751,1007,3.2484
11.9793,1008,3.2516
11.9836,1006,3.2452
11.9878,1007,3.2484
11.9920,1006,3.2452
11.9963,1005,3.2419
12.0005,1006,3.2452
12.0049,1005,3.2419
12.0092,1003,3.2355
12.0135,1006,3.2452
12.0177,1007,3.2484
12.0220,1004,3.2387
12.0263,1007,3.2484
12.0306,1007,3.2484
12.0349,1006,3.2452
12.0391,1007,3.2484
12.0434,1005,3.2419
12.0477,1004,3.2387
12.0519,1006,3.2452
12.0561,1004,3.2387
12.0603,1008,3.2516
12.0645,1007,3.2484
12.0687,1006,3.2452
12.0729,1007,3.2484
12.0771,1006,3.2452
12.0815,1007,3.2484
12.0858,1005,3.2419
12.0900,1004,3.2387
12.0942,1006,3.2452
12.0984,1005,3.2419
12.1026,1007,3.2484
12.1068,1006,3.2452
12.1111,1005,3.2419
12.1153,1007,3.2484
12.1195,1004,3.2387
12.1236,1006,3.2452
12.1279,1005,3.2419
12.1321,1007,3.2484
12.1364,1007,3.2484
12.1406,1007,3.2484
12.1448,1004,3.2387
12.1490,1003,3.2355
12.1532,1005,3.2419
12.1574,1005,3.2419
12.1616,1006,3.2452
12.1659,1005,3.2419
12.1702,1006,3.2452
12.1744,1006,3.2452
12.1791,1007,3.2484
12.1833,1008,3.2516
12.1876,1006,3.2452
12.1918,1007,3.2484
12.1960,1007,3.2484
12.2002,1006,3.2452
12.2044,1008,3.2516
12.2086,1004,3.2387
12.2128,1007,3.2484
12.2170,1005,3.2419
12.2212,1007,3.2484
12.2254,1006,3.2452
12.2296,1005,3.2419
12.2339,1005,3.2419
12.2381,1007,3.2484
12.2423,1005,3.2419
12.2465,1005,3.2419
12.2507,1005,3.2419
12.2550,1007,3.2484
12.2592,1007,3.2484
12.2635,1005,3.2419
12.2680,1007,3.2484
12.2723,1005,3.2419
12.2765,1007,3.2484
12.2807,1005,3.2419
12.2851,1004,3.2387
12.2894,1007,3.2484
12.2937,1005,3.2419
12.2980,1002,3.2323
12.3023,1006,3.2452
12.3066,1004,3.2387
12.3109,1005,3.2419
12.3152,1007,3.2484
12.3195,1007,3.2484
12.3237,1006,3.2452
12.3280,1006,3.2452
12.3323,1005,3.2419
12.3366,1006,3.2452
12.3408,1007,3.2484
12.3451,1007,3.2484
12.3493,1005,3.2419
12.3535,1007,3.2484
12.3578,1006,3.2452
12.3620,1007,3.2484
12.3662,1006,3.2452
12.3707,1006,3.2452
12.3749,1007,3.2484
12.3791,1005,3.2419
12.3834,1006,3.2452
12.3877,1007,3.2484
12.3919,1006,3.2452
12.3962,1004,3.2387
12.4005,1005,3.2419
12.4049,1005,3.2419
12.4093,1004,3.2387
12.4136,1004,3.2387
12.4180,1006,3.2452
12.4224,1007,3.2484
12.4269,1005,3.2419
12.4312,1007,3.2484
12.4367,1007,3.2484
12.4411,1005,3.2419
12.4455,1007,3.2484
12.4499,1007,3.2484
12.4544,1007,3.2484
12.4588,1007,3.2484
12.4633,1006,3.2452
12.4677,1003,3.2355
12.4721,1007,3.2484
12.4765,1005,3.2419
12.4809,1007,3.2484
12.4853,1005,3.2419
12.4896,1005,3.2419
12.4940,1006,3.2452
12.4983,1006,3.2452
12.5026,1003,3.2355
12.5070,1004,3.2387
12.5113,1004,3.2387
12.5157,1005,3.2419
12.5200,1007,3.2484
12.5244,1005,3.2419
12.5287,1007,3.2484
12.5331,1007,3.2484
12.5375,1007,3.2484
12.5418,1007,3.2484
12.5461,1004,3.2387
12.5505,1005,3.2419
12.5549,1004,3.2387
12.5599,1007,3.2484
12.5643,1005,3.2419
12.5686,1004,3.2387
12.5729,1007,3.2484
12.5773,1005,3.2419
12.5816,1007,3.2484
12.5859,1007,3.2484
12.5903,1003,3.2355
12.5947,1005,3.2419
12.5991,1005,3.2419
12.6034,1006,3.2452
12.6078,1008,3.2516
12.6121,1005,3.2419
12.6165,1006,3.2452
12.6215,1005,3.2419
12.6259,1007,3.2484
12.6302,1006,3.2452
12.6346,1004,3.2387
12.6390,1005,3.2419
12.6433,1007,3.2484
12.6477,1007,3.2484
12.6520,1008,3.2516
12.6564,1006,3.2452
12.6607,1007,3.2484
12.6651,1006,3.2452
12.6694,1006,3.2452
12.6738,1007,3.2484
12.6781,1007,3.2484
12.6832,1005,3.2419
12.6875,1007,3.2484
12.6919,1004,3.2387
12.6963,1006,3.2452
12.7006,1004,3.2387
12.7050,1006,3.2452
12.7094,1006,3.2452
12.7138,1007,3.2484
12.7182,1007,3.2484
12.7225,1006,3.2452
12.7270,1005,3.2419
12.7313,1007,3.2484
12.7357,1007,3.2484
12.7407,1006,3.2452
12.7451,1007,3.2484
12.7495,1006,3.2452
12.7538,1006,3.2452
12.7582,1005,3.2419
12.7625,1007,3.2484
12.7669,1005,3.2419
12.7712,1007,3.2484
12.7756,1007,3.2484
12.7800,1006,3.2452
12.7843,1006,3.2452
12.7887,1004,3.2387
12.7931,1007,3.2484
12.7974,1008,3.2516
12.8023,1007,3.2484
12.8067,1006,3.2452
12.8111,1004,3.2387
12.8155,1007,3.2484
12.8198,1007,3.2484
12.8242,1005,3.2419
12.8285,1006,3.2452
12.8329,1007,3.2484
12.8378,1007,3.2484
12.8421,1005,3.2419
12.8465,1007,3.2484
12.8509,1007,3.2484
12.8553,1007,3.2484
12.8596,1006,3.2452
12.8641,1004,3.2387
12.8684,1005,3.2419
12.8728,1006,3.2452
12.8771,1006,3.2452
12.8815,1005,3.2419
12.8858,1005,3.2419
12.8902,1004,3.2387
12.8946,1007,3.2484
12.8990,1007,3.2484
12.9033,1007,3.2484
12.9077,1006,3.2452
12.9121,1006,3.2452
12.9165,1007,3.2484
12.9209,1004,3.2387
12.9257,1007,3.2484
12.9301,1007,3.2484
12.9344,1003,3.2355
12.9388,1005,3.2419
12.9431,1006,3.2452
12.9474,1005,3.2419
12.9518,1007,3.2484
12.9561,1007,3.2484
12.9604,1007,3.2484
12.9648,1005,3.2419
12.9691,1006,3.2452
12.9735,1007,3.2484
12.9778,1004,3.2387
12.9821,1006,3.2452
12.9864,1006,3.2452
12.9914,1005,3.2419
12.9958,1007,3.2484
13.0001,1005,3.2419
13.0044,1004,3.2387
13.0087,1007,3.2484
13.0131,1005,3.2419
13.0174,1006,3.2452
13.0217,1007,3.2484
13.0260,1006,3.2452
13.0304,1007,3.2484
13.0348,1007,3.2484
13.0396,1005,3.2419
13.0439,1004,3.2387
13.0487,1007,3.2484
13.0530,1006,3.2452
13.0574,1006,3.2452
13.0617,1007,3.2484
13.0660,1004,3.2387
13.0703,1007,3.2484
13.0747,1006,3.2452
13.0790,1007,3.2484
13.0834,1006,3.2452
13.0877,1006,3.2452
13.0920,1004,3.2387
13.0963,1007,3.2484
13.1007,1007,3.2484
13.1050,1006,3.2452
13.1093,1006,3.2452
13.1136,1005,3.2419
13.1180,1004,3.2387
13.1223,1006,3.2452
13.1266,1007,3.2484
13.1309,1007,3.2484
13.1352,1007,3.2484
13.1396,1007,3.2484
13.1439,1006,3.2452
13.1482,1005,3.2419
13.1526,1007,3.2484
13.1569,1005,3.2419
13.1612,1006,3.2452
13.1655,1004,3.2387
13.1698,1006,3.2452
13.1741,1004,3.2387
13.1784,1004,3.2387
13.1827,1007,3.2484
13.1870,1007,3.2484
13.1913,1007,3.2484
13.1956,1007,3.2484
13.1999,1005,3.2419
13.2041,1005,3.2419
13.2084,1007,3.2484
13.2126,1006,3.2452
13.2169,1006,3.2452
13.2211,1007,3.2484
13.2253,1007,3.2484
13.2295,1007,3.2484
13.2337,1005,3.2419
13.2379,1005,3.2419
13.2421,1006,3.2452
13.2463,1006,3.2452
13.2505,1006,3.2452
13.2547,1005,3.2419
13.2590,1007,3.2484
13.2632,1006,3.2452
13.2674,1005,3.2419
13.2715,1006,3.2452
13.2758,1007,3.2484
13.2800,1007,3.2484
13.2842,1007,3.2484
13.2885,1005,3.2419
13.2928,1005,3.2419
13.2971,1007,3.2484
13.3014,1007,3.2484
13.3057,1007,3.2484
13.3101,1006,3.2452
13.3147,1007,3.2484
13.3190,1007,3.2484
13.3232,1006,3.2452
13.3274,1006,3.2452
13.3316,1006,3.2452
13.3358,1008,3.2516
13.3401,1005,3.2419
13.3444,1005,3.2419
13.3487,1005,3.2419
13.3530,1007,3.2484
13.3573,1006,3.2452
13.3616,1006,3.2452
13.3659,1007,3.2484
13.3702,1006,3.2452
13.3744,1005,3.2419
13.3787,1007,3.2484
13.3830,1005,3.2419
13.3872,1007,3.2484
13.3916,1006,3.2452
13.3959,1007,3.2484
13.4007,1006,3.2452
13.4050,1004,3.2387
13.4092,1006,3.2452
13.4135,1005,3.2419
13.4177,1007,3.2484
13.4220,1005,3.2419
13.4262,1005,3.2419
13.4304,1006,3.2452
13.4348,1004,3.2387
13.4392,1004,3.2387
13.4435,1006,3.2452
13.4477,1005,3.2419
13.4519,1006,3.2452
13.4561,1004,3.2387
13.4603,1007,3.2484
13.4646,1006,3.2452
13.4688,1006,3.2452
13.4730,1006,3.2452
13.4772,1006,3.2452
13.4814,1003,3.2355
13.4857,1006,3.2452
13.4899,1006,3.2452
13.4941,1004,3.2387
13.4987,1006,3.2452
13.5030,1004,3.2387
13.5073,1005,3.2419
13.5115,1007,3.2484
13.5159,1006,3.2452
13.5202,1003,3.2355
13.5245,1005,3.2419
13.5288,1007,3.2484
13.5331,1003,3.2355
13.5374,1004,3.2387
13.5416,1006,3.2452
13.5459,1006,3.2452
13.5502,1004,3.2387
13.5545,1008,3.2516
13.5587,1003,3.2355
13.5629,1007,3.2484
13.5671,1005,3.2419
13.5713,1005,3.2419
13.5755,1005,3.2419
13.5797,1007,3.2484
13.5839,1007,3.2484
13.5882,1007,3.2484
13.5924,1004,3.2387
13.5967,1005,3.2419
13.6011,1007,3.2484
13.6054,1005,3.2419
13.6098,1004,3.2387
13.6141,1007,3.2484
13.6183,1004,3.2387
13.6227,1007,3.2484
13.6270,1007,3.2484
13.6313,1006,3.2452
13.6355,1005,3.2419
13.6397,1007,3.2484
13.6440,1004,3.2387
13.6483,1006,3.2452
13.6525,1006,3.2452
13.6568,1004,3.2387
13.6610,1004,3.2387
13.6652,1007,3.2484
13.6695,1007,3.2484
13.6736,1005,3.2419
13.6778,1004,3.2387
13.6820,1004,3.2387
13.6862,1005,3.2419
13.6904,1003,3.2355
13.6946,1004,3.2387
13.6989,1008,3.2516
13.7033,1007,3.2484
13.7075,1005,3.2419
13.7117,1006,3.2452
13.7159,1005,3.2419
13.7201,1006,3.2452
13.7243,1006,3.2452
13.7286,1006,3.2452
13.7330,1005,3.2419
13.7373,1004,3.2387
13.7416,1007,3.2484
13.7459,1007,3.2484
13.7502,1007,3.2484
13.7545,1006,3.2452
13.7588,1007,3.2484
13.7631,1005,3.2419
13.7675,1005,3.2419
13.7718,1007,3.2484
13.7761,1007,3.2484
13.7804,1006,3.2452
13.7853,1006,3.2452
13.7900,1005,3.2419
13.7943,1007,3.2484
13.7992,1005,3.2419
13.8035,1007,3.2484
13.8079,1007,3.2484
13.8122,1007,3.2484
13.8165,1007,3.2484
13.8208,1006,3.2452
13.8251,1006,3.2452
13.8294,1004,3.2387
13.8337,1005,3.2419
13.8381,1005,3.2419
13.8424,1004,3.2387
13.8466,1005,3.2419
13.8509,1007,3.2484
13.8552,1007,3.2484
13.8594,1004,3.2387
13.8637,1008,3.2516
13.8679,1004,3.2387
13.8722,1005,3.2419
13.8765,1004,3.2387
13.8807,1007,3.2484
13.8850,1006,3.2452
13.8892,1006,3.2452
13.8935,1003,3.2355
13.8978,1004,3.2387
13.9022,1006,3.2452
13.9064,1007,3.2484
13.9107,1006,3.2452
13.9150,1006,3.2452
13.9193,1006,3.2452
13.9235,1007,3.2484
13.9283,1004,3.2387
13.9326,1006,3.2452
13.9368,1005,3.2419
13.9411,1006,3.2452
13.9453,1007,3.2484
13.9496,1006,3.2452
13.9539,1004,3.2387
13.9581,1006,3.2452
13.9624,1004,3.2387
13.9667,1007,3.2484
13.9710,1004,3.2387
13.9753,1006,3.2452
13.9796,1005,3.2419
13.9839,1005,3.2419
13.9881,1005,3.2419
13.9924,1007,3.2484
13.9967,1006,3.2452
14.0010,1006,3.2452
14.0052,1004,3.2387
14.0101,1006,3.2452
14.0144,1005,3.2419
14.0186,1006,3.2452
14.0229,1006,3.2452
14.0271,1005,3.2419
14.0314,1007,3.2484
14.0357,1004,3.2387
14.0400,1007,3.2484
14.0443,1007,3.2484
14.0486,1004,3.2387
14.0529,1005,3.2419
14.0572,1005,3.2419
14.0614,1005,3.2419
14.0656,1006,3.2452
14.0698,1007,3.2484
14.0740,1006,3.2452
14.0783,1004,3.2387
14.0825,1006,3.2452
14.0870,1005,3.2419
14.0912,1004,3.2387
14.0960,1007,3.2484
14.1002,1006,3.2452
14.1044,1004,3.2387
14.1087,1006,3.2452
14.1129,1006,3.2452
14.1171,1004,3.2387
14.1213,1006,3.2452
14.1255,1004,3.2387
14.1299,1006,3.2452
14.1342,1007,3.2484
14.1384,1007,3.2484
14.1426,1007,3.2484
14.1469,1006,3.2452
14.1511,1008,3.2516
14.1554,1006,3.2452
14.1596,1006,3.2452
14.1638,1006,3.2452
14.1680,1005,3.2419
14.1723,1007,3.2484
14.1765,1007,3.2484
14.1807,1007,3.2484
14.1849,1003,3.2355
14.1891,1004,3.2387
14.1939,1006,3.2452
14.1981,1004,3.2387
14.2024,1004,3.2387
14.2066,1004,3.2387
14.2108,1005,3.2419
14.2150,1007,3.2484
14.2192,1007,3.2484
14.2234,1006,3.2452
14.2276,1006,3.2452
14.2318,1006,3.2452
14.2361,1006,3.2452
14.2403,1007,3.2484
14.2445,1004,3.2387
14.2487,1007,3.2484
14.2529,1004,3.2387
14.2572,1006,3.2452
14.2615,1006,3.2452
14.2657,1006,3.2452
14.2699,1005,3.2419
14.2740,1004,3.2387
14.2783,1006,3.2452
14.2825,1004,3.2387
14.2867,1005,3.2419
14.2909,1007,3.2484
14.2951,1006,3.2452
14.2993,1006,3.2452
14.3035,1005,3.2419
14.3077,1004,3.2387
14.3119,1006,3.2452
14.3165,1004,3.2387
14.3207,1005,3.2419
14.3249,1003,3.2355
14.3291,1005,3.2419
14.3334,1006,3.2452
14.3377,1007,3.2484
14.3420,1006,3.2452
14.3462,1006,3.2452
14.3504,1005,3.2419
14.3547,1007,3.2484
14.3589,1007,3.2484
14.3632,1005,3.2419
14.3674,1006,3.2452
14.3716,1007,3.2484
14.3758,1004,3.2387
14.3800,1007,3.2484
14.3842,1006,3.2452
14.3885,1006,3.2452
14.3927,1006,3.2452
14.3969,1006,3.2452
14.4012,1006,3.2452
14.4054,1004,3.2387
14.4096,1007,3.2484
14.4138,1007,3.2484
14.4186,1005,3.2419
14.4228,1004,3.2387
14.4270,1004,3.2387
14.4312,1007,3.2484
14.4354,1005,3.2419
14.4396,1004,3.2387
14.4439,1007,3.2484
14.4481,1004,3.2387
14.4523,1006,3.2452
14.4565,1004,3.2387
14.4607,1006,3.2452
14.4649,1007,3.2484
14.4692,1006,3.2452
14.4734,1007,3.2484
14.4776,1005,3.2419
14.4818,1006,3.2452
14.4860,1007,3.2484
14.4903,1004,3.2387
14.4945,1005,3.2419
14.4987,1007,3.2484
14.5029,1007,3.2484
14.5072,1004,3.2387
14.5113,1007,3.2484
14.5155,1007,3.2484
14.5197,1007,3.2484
14.5240,1007,3.2484
14.5283,1004,3.2387
14.5326,1004,3.2387
14.5369,1007,3.2484
14.5412,1007,3.2484
14.5455,1006,3.2452
14.5503,1007,3.2484
14.5546,1005,3.2419
14.5589,1004,3.2387
14.5631,1006,3.2452
14.5674,1007,3.2484
14.5717,1005,3.2419
14.5761,1006,3.2452
14.5804,1007,3.2484
14.5848,1005,3.2419
14.5891,1007,3.2484
14.5934,1006,3.2452
14.5977,1005,3.2419
14.6025,1006,3.2452
14.6068,1004,3.2387
14.6110,1005,3.2419
14.6153,1007,3.2484
14.6196,1004,3.2387
14.6239,1007,3.2484
14.6282,1004,3.2387
14.6325,1004,3.2387
14.6368,1007,3.2484
14.6411,1007,3.2484
14.6454,1007,3.2484
14.6497,1006,3.2452
14.6539,1004,3.2387
14.6582,1007,3.2484
14.6625,1005,3.2419
14.6667,1005,3.2419
14.6710,1005,3.2419
14.6752,1005,3.2419
14.6794,1005,3.2419
14.6836,1006,3.2452
14.6878,1006,3.2452
14.6921,1004,3.2387
14.6964,1004,3.2387
14.7005,1007,3.2484
14.7049,1004,3.2387
14.7092,1007,3.2484
14.7134,1007,3.2484
14.7176,1007,3.2484
14.7218,1006,3.2452
14.7260,1007,3.2484
14.7302,1006,3.2452
14.7344,1006,3.2452
14.7387,1004,3.2387
14.7430,1003,3.2355
14.7472,1007,3.2484
14.7519,1006,3.2452
14.7562,1007,3.2484
14.7605,1004,3.2387
14.7647,1005,3.2419
14.7690,1007,3.2484
14.7733,1005,3.2419
14.7776,1007,3.2484
14.7819,1003,3.2355
14.7861,1004,3.2387
14.7909,1007,3.2484
14.7952,1004,3.2387
14.7995,1006,3.2452
14.8038,1005,3.2419
14.8081,1005,3.2419
14.8123,1004,3.2387
14.8165,1007,3.2484
14.8207,1006,3.2452
14.8249,1005,3.2419
14.8291,1008,3.2516
14.8334,1005,3.2419
14.8375,1006,3.2452
14.8417,1007,3.2484
14.8459,1004,3.2387
14.8501,1007,3.2484
14.8544,1004,3.2387
14.8587,1006,3.2452
14.8629,1004,3.2387
14.8671,1007,3.2484
14.8713,1007,3.2484
14.8756,1004,3.2387
14.8799,1007,3.2484
14.8841,1005,3.2419
14.8883,1007,3.2484
14.8931,1004,3.2387
14.8973,1006,3.2452
14.9015,1007,3.2484
14.9058,1002,3.2323
14.9100,1006,3.2452
14.9143,1004,3.2387
14.9185,1007,3.2484
14.9227,1006,3.2452
14.9269,1006,3.2452
14.9311,1007,3.2484
14.9353,1005,3.2419
14.9395,1006,3.2452
14.9437,1004,3.2387
14.9480,1004,3.2387
14.9522,1006,3.2452
14.9564,1004,3.2387
14.9607,1006,3.2452
14.9649,1006,3.2452
14.9691,1006,3.2452
14.9734,1006,3.2452
14.9777,1007,3.2484
14.9820,1006,3.2452
14.9863,1005,3.2419
14.9909,1003,3.2355
14.9952,1006,3.2452
14.9995,1006,3.2452
15.0038,1007,3.2484
15.0084,1007,3.2484
15.0210,1005,3.2419
15.0254,1005,3.2419
15.0298,1006,3.2452
15.0342,1005,3.2419
15.0385,1006,3.2452
15.0428,1005,3.2419
15.0471,1004,3.2387
15.0515,1004,3.2387
15.0558,1006,3.2452
15.0601,1006,3.2452
15.0644,1007,3.2484
15.0686,1004,3.2387
15.0731,1006,3.2452
15.0774,1006,3.2452
15.0816,1007,3.2484
15.0859,1005,3.2419
15.0907,1007,3.2484
15.0950,1004,3.2387
15.0993,1007,3.2484
15.1037,1004,3.2387
15.1085,1007,3.2484
15.1128,1007,3.2484
15.1173,1007,3.2484
15.1217,1007,3.2484
15.1261,1005,3.2419
15.1305,1007,3.2484
15.1349,1007,3.2484
15.1393,1007,3.2484
15.1437,1007,3.2484
15.1481,1006,3.2452
15.1525,1005,3.2419
15.1569,1005,3.2419
15.1613,1007,3.2484
15.1658,1005,3.2419
15.1703,1005,3.2419
15.1747,1007,3.2484
15.1791,1007,3.2484
15.1836,1005,3.2419
15.1880,1007,3.2484
15.1923,1006,3.2452
15.1967,1006,3.2452
15.2010,1005,3.2419
15.2055,1007,3.2484
15.2098,1004,3.2387
15.2142,1005,3.2419
15.2185,1007,3.2484
15.2229,1007,3.2484
15.2272,1004,3.2387
15.2316,1007,3.2484
15.2360,1006,3.2452
15.2403,1006,3.2452
15.2447,1005,3.2419
15.2492,1006,3.2452
15.2535,1007,3.2484
15.2581,1006,3.2452
15.2624,1006,3.2452
15.2668,1005,3.2419
15.2711,1005,3.2419
15.2754,1005,3.2419
15.2798,1007,3.2484
15.2842,1007,3.2484
15.2885,1006,3.2452
15.2929,1007,3.2484
15.2972,1007,3.2484
15.3016,1008,3.2516
15.3064,1005,3.2419
15.3107,1007,3.2484
15.3151,1005,3.2419
15.3197,1007,3.2484
15.3241,1005,3.2419
15.3284,1004,3.2387
15.3328,1005,3.2419
15.3372,1006,3.2452
15.3415,1004,3.2387
15.3459,1005,3.2419
15.3502,1006,3.2452
15.3545,1007,3.2484
15.3589,1005,3.2419
15.3632,1005,3.2419
15.3676,1006,3.2452
15.3720,1005,3.2419
15.3763,1005,3.2419
15.3807,1007,3.2484
15.3857,1008,3.2516
15.3901,1004,3.2387
15.3944,1004,3.2387
15.3988,1005,3.2419
15.4031,1007,3.2484
15.4075,1006,3.2452
15.4118,1007,3.2484
15.4162,1008,3.2516
15.4205,1005,3.2419
15.4249,1005,3.2419
15.4293,1004,3.2387
15.4336,1005,3.2419
15.4380,1007,3.2484
15.4423,1005,3.2419
15.4474,1004,3.2387
15.4518,1006,3.2452
15.4561,1005,3.2419
15.4605,1007,3.2484
15.4649,1003,3.2355
15.4693,1003,3.2355
15.4737,1007,3.2484
15.4781,1006,3.2452
15.4824,1007,3.2484
15.4868,1006,3.2452
15.4912,1007,3.2484
15.4956,1007,3.2484
15.5000,1006,3.2452
15.5048,1006,3.2452
15.5092,1006,3.2452
15.5135,1007,3.2484
15.5178,1004,3.2387
15.5222,1005,3.2419
15.5265,1007,3.2484
15.5309,1007,3.2484
15.5352,1006,3.2452
15.5395,1005,3.2419
15.5439,1005,3.2419
15.5483,1006,3.2452
15.5527,1006,3.2452
15.5571,1007,3.2484
15.5614,1007,3.2484
15.5665,1007,3.2484
15.5708,1007,3.2484
15.5752,1005,3.2419
15.5795,1008,3.2516
15.5839,1007,3.2484
15.5882,1004,3.2387
15.5932,1005,3.2419
15.5975,1007,3.2484
15.6019,1006,3.2452
15.6063,1007,3.2484
15.6106,1005,3.2419
15.6150,1005,3.2419
15.6193,1005,3.2419
15.6237,1004,3.2387
15.6283,1006,3.2452
15.6327,1007,3.2484
15.6371,1004,3.2387
15.6415,1006,3.2452
15.6458,1006,3.2452
15.6502,1007,3.2484
15.6545,1004,3.2387
15.6589,1006,3.2452
15.6639,1004,3.2387
15.6683,1005,3.2419
15.6726,1005,3.2419
15.6770,1007,3.2484
15.6814,1007,3.2484
15.6858,1005,3.2419
15.6902,1004,3.2387
15.6945,1006,3.2452
15.6989,1006,3.2452
15.7033,1004,3.2387
15.7076,1006,3.2452
15.7120,1007,3.2484
15.7164,1007,3.2484
15.7208,1004,3.2387
15.7251,1005,3.2419
15.7295,1005,3.2419
15.7338,1007,3.2484
15.7382,1007,3.2484
15.7425,1003,3.2355
15.7468,1005,3.2419
15.7516,1006,3.2452
15.7559,1006,3.2452
15.7606,1005,3.2419
15.7649,1006,3.2452
15.7692,1006,3.2452
15.7736,1005,3.2419
15.7779,1006,3.2452
15.7823,1004,3.2387
15.7866,1007,3.2484
15.7909,1006,3.2452
15.7952,1006,3.2452
15.7996,1006,3.2452
15.8039,1006,3.2452
15.8082,1004,3.2387
15.8130,1006,3.2452
15.8173,1006,3.2452
15.8216,1005,3.2419
15.8259,1007,3.2484
15.8346,1007,3.2484
15.8390,1007,3.2484
15.8433,1007,3.2484
15.8476,1005,3.2419
15.8519,1006,3.2452
15.8563,1006,3.2452
15.8606,1004,3.2387
15.8649,1006,3.2452
15.8693,1008,3.2516
15.8736,1005,3.2419
15.8779,1007,3.2484
15.8823,1006,3.2452
15.8866,1006,3.2452
15.8909,1005,3.2419
15.8952,1007,3.2484
15.8996,1006,3.2452
15.9039,1004,3.2387
15.9082,1004,3.2387
15.9125,1007,3.2484
15.9169,1007,3.2484
15.9212,1005,3.2419
15.9255,1006,3.2452
15.9298,1006,3.2452
15.9342,1005,3.2419
15.9385,1004,3.2387
15.9429,1005,3.2419
15.9472,1005,3.2419
15.9515,1007,3.2484
15.9564,1005,3.2419
15.9607,1007,3.2484
15.9651,1004,3.2387
15.9694,1007,3.2484
15.9737,1005,3.2419
15.9781,1004,3.2387
15.9824,1006,3.2452
15.9867,1007,3.2484
15.9910,1007,3.2484
15.9953,1007,3.2484
15.9996,1003,3.2355
16.0039,1004,3.2387
16.0082,1004,3.2387
16.0126,1004,3.2387
16.0169,1007,3.2484
16.0212,1005,3.2419
16.0255,1007,3.2484
16.0297,1007,3.2484
16.0340,1008,3.2516
16.0382,1004,3.2387
16.0425,1006,3.2452
16.0468,1006,3.2452
16.0510,1007,3.2484
16.0553,1004,3.2387
16.0596,1005,3.2419
16.0640,1007,3.2484
16.0683,1005,3.2419
16.0725,1007,3.2484
16.0767,1005,3.2419
16.0810,1004,3.2387
16.0853,1006,3.2452
16.0897,1005,3.2419
16.0940,1007,3.2484
16.0983,1006,3.2452
16.1026,1007,3.2484
16.1069,1004,3.2387
16.1111,1005,3.2419
16.1154,1008,3.2516
16.1201,1007,3.2484
16.1244,1007,3.2484
16.1287,1005,3.2419
16.1331,1006,3.2452
16.1374,1005,3.2419
16.1416,1006,3.2452
16.1459,1006,3.2452
16.1502,1005,3.2419
16.1545,1006,3.2452
16.1587,1006,3.2452
16.1630,1006,3.2452
16.1673,1006,3.2452
16.1716,1006,3.2452
16.1758,1007,3.2484
16.1800,1004,3.2387
16.1842,1005,3.2419
16.1885,1007,3.2484
16.1927,1007,3.2484
16.1969,1005,3.2419
16.2011,1005,3.2419
16.2053,1004,3.2387
16.2096,1007,3.2484
16.2141,1004,3.2387
16.2183,1006,3.2452
16.2226,1006,3.2452
16.2268,1006,3.2452
16.2310,1006,3.2452
16.2353,1005,3.2419
16.2395,1004,3.2387
16.2437,1005,3.2419
16.2480,1005,3.2419
16.2522,1006,3.2452
16.2564,1006,3.2452
16.2606,1005,3.2419
16.2649,1004,3.2387
16.2691,1007,3.2484
16.2733,1006,3.2452
16.2775,1005,3.2419
16.2816,1006,3.2452
16.2858,1005,3.2419
16.2901,1006,3.2452
16.2943,1006,3.2452
16.2985,1006,3.2452
16.3027,1007,3.2484
16.3069,1007,3.2484
16.3112,1005,3.2419
16.3154,1006,3.2452
16.3196,1006,3.2452
16.3243,1004,3.2387
16.3286,1007,3.2484
16.3328,1004,3.2387
16.3370,1005,3.2419
16.3412,1005,3.2419
16.3455,1005,3.2419
16.3497,1007,3.2484
16.3539,1004,3.2387
16.3581,1004,3.2387
16.3623,1006,3.2452
16.3665,1007,3.2484
16.3707,1003,3.2355
16.3749,1005,3.2419
16.3791,1007,3.2484
16.3833,1006,3.2452
16.3876,1006,3.2452
16.3918,1007,3.2484
16.3965,1006,3.2452
16.4008,1007,3.2484
16.4050,1007,3.2484
16.4092,1005,3.2419
16.4135,1006,3.2452
16.4177,1007,3.2484
16.4220,1005,3.2419
16.4265,1007,3.2484
16.4308,1007,3.2484
16.4351,1006,3.2452
16.4393,1007,3.2484
16.4435,1007,3.2484
16.4478,1005,3.2419
16.4520,1007,3.2484
16.4562,1006,3.2452
16.4604,1005,3.2419
16.4647,1004,3.2387
16.4689,1006,3.2452
16.4731,1007,3.2484
16.4774,1007,3.2484
16.4816,1007,3.2484
16.4858,1004,3.2387
16.4900,1004,3.2387
16.4942,1007,3.2484
16.4984,1006,3.2452
16.5027,1004,3.2387
16.5069,1007,3.2484
16.5111,1006,3.2452
16.5154,1007,3.2484
16.5197,1004,3.2387
16.5239,1006,3.2452
16.5285,1004,3.2387
16.5328,1003,3.2355
16.5370,1004,3.2387
16.5412,1005,3.2419
16.5455,1007,3.2484
16.5498,1005,3.2419
16.5541,1003,3.2355
16.5584,1006,3.2452
16.5627,1007,3.2484
16.5669,1006,3.2452
16.5713,1007,3.2484
16.5757,1005,3.2419
16.5799,1005,3.2419
16.5842,1005,3.2419
16.5884,1007,3.2484
16.5927,1005,3.2419
16.5973,1004,3.2387
16.6016,1004,3.2387
16.6058,1005,3.2419
16.6104,1006,3.2452
16.6147,1007,3.2484
16.6189,1006,3.2452
16.6232,1007,3.2484
16.6274,1006,3.2452
16.6316,1007,3.2484
16.6358,1005,3.2419
16.6400,1006,3.2452
16.6442,1006,3.2452
16.6484,1007,3.2484
16.6526,1006,3.2452
16.6569,1006,3.2452
16.6611,1005,3.2419
16.6654,1006,3.2452
16.6697,1006,3.2452
16.6740,1008,3.2516
16.6784,1006,3.2452
16.6826,1007,3.2484
16.6869,1006,3.2452
16.6912,1007,3.2484
16.6956,1007,3.2484
16.6999,1007,3.2484
16.7042,1005,3.2419
16.7085,1004,3.2387
16.7129,1006,3.2452
16.7172,1007,3.2484
16.7220,1006,3.2452
16.7263,1006,3.2452
16.7307,1005,3.2419
16.7350,1005,3.2419
16.7393,1006,3.2452
16.7436,1004,3.2387
16.7479,1006,3.2452
16.7522,1007,3.2484
16.7565,1007,3.2484
16.7608,1007,3.2484
16.7651,1004,3.2387
16.7693,1007,3.2484
16.7744,1007,3.2484
16.7787,1004,3.2387
16.7830,1005,3.2419
16.7872,1005,3.2419
16.7915,1004,3.2387
16.7957,1004,3.2387
16.8000,1006,3.2452
16.8043,1003,3.2355
16.8086,1006,3.2452
16.8129,1004,3.2387
16.8171,1006,3.2452
16.8214,1004,3.2387
16.8257,1007,3.2484
16.8300,1007,3.2484
16.8342,1004,3.2387
16.8385,1006,3.2452
16.8428,1007,3.2484
16.8471,1006,3.2452
16.8514,1005,3.2419
16.8562,1004,3.2387
16.8605,1004,3.2387
16.8647,1007,3.2484
16.8690,1007,3.2484
16.8732,1006,3.2452
16.8775,1007,3.2484
16.8818,1006,3.2452
16.8860,1008,3.2516
16.8903,1007,3.2484
16.8945,1007,3.2484
16.8988,1005,3.2419
16.9031,1006,3.2452
16.9074,1004,3.2387
16.9116,1007,3.2484
16.9159,1005,3.2419
16.9201,1004,3.2387
16.9244,1007,3.2484
16.9288,1007,3.2484
16.9330,1004,3.2387
16.9373,1004,3.2387
16.9423,1005,3.2419
16.9467,1006,3.2452
16.9509,1007,3.2484
16.9552,1004,3.2387
16.9595,1005,3.2419
16.9637,1007,3.2484
16.9680,1007,3.2484
16.9723,1004,3.2387
16.9766,1005,3.2419
16.9809,1007,3.2484
16.9852,1006,3.2452
16.9895,1006,3.2452
16.9937,1007,3.2484
16.9980,1006,3.2452
17.0023,1004,3.2387
17.0067,1006,3.2452
17.0110,1007,3.2484
17.0152,1005,3.2419
17.0201,1006,3.2452
17.0243,1005,3.2419
17.0291,1006,3.2452
17.0334,1006,3.2452
17.0377,1007,3.2484
17.0420,1006,3.2452
17.0463,1004,3.2387
17.0506,1007,3.2484
17.0549,1007,3.2484
17.0591,1006,3.2452
17.0634,1007,3.2484
17.0676,1007,3.2484
17.0718,1005,3.2419
17.0761,1005,3.2419
17.0803,1006,3.2452
17.0845,1003,3.2355
17.0887,1006,3.2452
17.0929,1007,3.2484
17.0971,1005,3.2419
17.1014,1006,3.2452
17.1057,1005,3.2419
17.1099,1004,3.2387
17.1141,1004,3.2387
17.1183,1007,3.2484
17.1225,1006,3.2452
17.1268,1004,3.2387
17.1311,1007,3.2484
17.1353,1006,3.2452
17.1395,1005,3.2419
17.1437,1007,3.2484
17.1480,1005,3.2419
17.1522,1004,3.2387
17.1564,1005,3.2419
17.1606,1006,3.2452
17.1648,1007,3.2484
17.1691,1004,3.2387
17.1733,1004,3.2387
17.1775,1007,3.2484
17.1817,1007,3.2484
17.1859,1007,3.2484
17.1902,1004,3.2387
17.1944,1004,3.2387
17.1986,1005,3.2419
17.2028,1004,3.2387
17.2075,1007,3.2484
17.2117,1004,3.2387
17.2159,1007,3.2484
17.2201,1007,3.2484
17.2243,1004,3.2387
17.2286,1006,3.2452
17.2328,1004,3.2387
17.2370,1004,3.2387
17.2412,1005,3.2419
17.2454,1006,3.2452
17.2496,1007,3.2484
17.2538,1003,3.2355
17.2580,1004,3.2387
17.2622,1006,3.2452
17.2665,1006,3.2452
17.2707,1005,3.2419
17.2749,1006,3.2452
17.2792,1006,3.2452
17.2833,1007,3.2484
17.2876,1005,3.2419
17.2918,1005,3.2419
17.2960,1005,3.2419
17.3002,1006,3.2452
17.3045,1005,3.2419
17.3087,1004,3.2387
17.3130,1006,3.2452
17.3172,1006,3.2452
17.3214,1005,3.2419
17.3257,1007,3.2484
17.3300,1004,3.2387
17.3343,1006,3.2452
17.3386,1007,3.2484
17.3429,1005,3.2419
17.3472,1007,3.2484
17.3515,1004,3.2387
17.3557,1004,3.2387
17.3599,1004,3.2387
17.3641,1005,3.2419
17.3684,1005,3.2419
17.3726,1005,3.2419
17.3769,1007,3.2484
17.3810,1007,3.2484
17.3852,1006,3.2452
17.3895,1007,3.2484
17.3937,1006,3.2452
17.3979,1004,3.2387
17.4021,1005,3.2419
17.4064,1006,3.2452
17.4106,1004,3.2387
17.4148,1007,3.2484
17.4190,1004,3.2387
17.4232,1005,3.2419
17.4278,1006,3.2452
17.4320,1005,3.2419
17.4362,1007,3.2484
17.4405,1004,3.2387
17.4447,1005,3.2419
17.4490,1005,3.2419
17.4532,1005,3.2419
17.4574,1005,3.2419
17.4616,1007,3.2484
17.4658,1006,3.2452
17.4700,1007,3.2484
17.4743,1005,3.2419
17.4785,1005,3.2419
17.4827,1006,3.2452
17.4869,1005,3.2419
17.4912,1006,3.2452
17.4955,1004,3.2387
17.4997,1007,3.2484
17.5040,1007,3.2484
17.5085,1004,3.2387
17.5127,1007,3.2484
17.5170,1007,3.2484
17.5211,1005,3.2419
17.5254,1007,3.2484
17.5300,1006,3.2452
17.5343,1007,3.2484
17.5385,1004,3.2387
17.5427,1007,3.2484
17.5469,1006,3.2452
17.5511,1006,3.2452
17.5553,1007,3.2484
17.5595,1006,3.2452
17.5637,1006,3.2452
17.5680,1005,3.2419
17.5722,1006,3.2452
17.5766,1006,3.2452
17.5809,1003,3.2355
17.5852,1005,3.2419
17.5896,1007,3.2484
17.5939,1007,3.2484
17.5983,1006,3.2452
17.6027,1006,3.2452
17.6070,1006,3.2452
17.6113,1007,3.2484
17.6162,1004,3.2387
17.6204,1007,3.2484
17.6248,1005,3.2419
17.6290,1005,3.2419
17.6333,1005,3.2419
17.6376,1006,3.2452
17.6418,1006,3.2452
17.6461,1005,3.2419
17.6504,1005,3.2419
17.6547,1005,3.2419
17.6589,1005,3.2419
17.6632,1007,3.2484
17.6675,1005,3.2419
17.6718,1005,3.2419
17.6760,1004,3.2387
17.6802,1007,3.2484
17.6844,1006,3.2452
17.6886,1005,3.2419
17.6928,1004,3.2387
17.6970,1005,3.2419
17.7012,1005,3.2419
17.7059,1004,3.2387
17.7101,1007,3.2484
17.7143,1004,3.2387
17.7186,1006,3.2452
17.7228,1004,3.2387
17.7270,1007,3.2484
17.7312,1007,3.2484
17.7354,1007,3.2484
17.7397,1004,3.2387
17.7439,1007,3.2484
17.7481,1007,3.2484
17.7523,1007,3.2484
17.7565,1006,3.2452
17.7608,1004,3.2387
17.7650,1005,3.2419
17.7692,1005,3.2419
17.7734,1007,3.2484
17.7777,1005,3.2419
17.7819,1006,3.2452
17.7861,1007,3.2484
17.7903,1004,3.2387
17.7945,1007,3.2484
17.7987,1007,3.2484
17.8030,1007,3.2484
17.8073,1006,3.2452
17.8117,1005,3.2419
17.8165,1006,3.2452
17.8208,1006,3.2452
17.8250,1006,3.2452
17.8293,1007,3.2484
17.8336,1007,3.2484
17.8379,1004,3.2387
17.8422,1006,3.2452
17.8464,1004,3.2387
17.8507,1004,3.2387
17.8549,1005,3.2419
17.8591,1005,3.2419
17.8633,1007,3.2484
17.8676,1004,3.2387
17.8718,1004,3.2387
17.8764,1007,3.2484
17.8806,1005,3.2419
17.8849,1006,3.2452
17.8891,1005,3.2419
17.8933,1007,3.2484
17.8981,1004,3.2387
17.9027,1006,3.2452
17.9070,1004,3.2387
17.9113,1007,3.2484
17.9156,1006,3.2452
17.9199,1005,3.2419
17.9243,1007,3.2484
17.9286,1008,3.2516
17.9329,1004,3.2387
17.9372,1007,3.2484
17.9415,1005,3.2419
17.9457,1005,3.2419
17.9500,1006,3.2452
17.9543,1006,3.2452
17.9585,1006,3.2452
17.9628,1007,3.2484
17.9671,1007,3.2484
17.9713,1006,3.2452
17.9756,1006,3.2452
17.9799,1005,3.2419
17.9842,1005,3.2419
17.9884,1006,3.2452
17.9926,1006,3.2452
17.9968,1008,3.2516
18.0010,1005,3.2419
18.0053,1006,3.2452
18.0095,1007,3.2484
18.0137,1005,3.2419
18.0179,1006,3.2452
18.0223,1005,3.2419
18.0267,1004,3.2387
18.0310,1006,3.2452
18.0354,1005,3.2419
18.0397,1006,3.2452
18.0440,1006,3.2452
18.0484,1006,3.2452
18.0527,1006,3.2452
18.0570,1003,3.2355
18.0614,1006,3.2452
18.0667,1006,3.2452
18.0710,1007,3.2484
18.0753,1007,3.2484
18.0797,1005,3.2419
18.0841,1005,3.2419
18.0886,1007,3.2484
18.0929,1007,3.2484
18.0973,1007,3.2484
18.1016,1005,3.2419
18.1060,1005,3.2419
18.1104,1006,3.2452
18.1148,1007,3.2484
18.1191,1006,3.2452
18.1234,1006,3.2452
18.1277,1005,3.2419
18.1321,1006,3.2452
18.1365,1006,3.2452
18.1409,1007,3.2484
18.1454,1007,3.2484
18.1499,1005,3.2419
18.1542,1007,3.2484
18.1586,1006,3.2452
18.1629,1006,3.2452
18.1673,1007,3.2484
18.1717,1006,3.2452
18.1761,1006,3.2452
18.1805,1007,3.2484
18.1850,1006,3.2452
18.1894,1006,3.2452
18.1938,1005,3.2419
18.1981,1006,3.2452
18.2025,1006,3.2452
18.2073,1005,3.2419
18.2117,1006,3.2452
18.2161,1006,3.2452
18.2204,1005,3.2419
18.2249,1006,3.2452
18.2300,1006,3.2452
18.2345,1007,3.2484
18.2390,1005,3.2419
18.2434,1004,3.2387
18.2487,1006,3.2452
18.2531,1006,3.2452
18.2575,1007,3.2484
18.2618,1005,3.2419
18.2662,1004,3.2387
18.2706,1007,3.2484
18.2751,1005,3.2419
18.2803,1007,3.2484
18.2848,1006,3.2452
18.2903,1005,3.2419
18.2948,1003,3.2355
18.2993,1004,3.2387
18.3037,1006,3.2452
18.3081,1007,3.2484
18.3125,1007,3.2484
18.3169,1005,3.2419
18.3213,1005,3.2419
18.3259,1006,3.2452
18.3316,1006,3.2452
18.3360,1005,3.2419
18.3403,1007,3.2484
18.3447,1007,3.2484
18.3494,1003,3.2355
18.3541,1006,3.2452
18.3587,1005,3.2419
18.3631,1006,3.2452
18.3675,1006,3.2452
18.3718,1007,3.2484
18.3761,1007,3.2484
18.3805,1006,3.2452
18.3857,1003,3.2355
18.3901,1005,3.2419
18.3944,1007,3.2484
18.3988,1005,3.2419
18.4032,1006,3.2452
18.4075,1006,3.2452
18.4119,1007,3.2484
18.4164,1007,3.2484
18.4208,1005,3.2419
18.4254,1005,3.2419
18.4298,1006,3.2452
18.4348,1005,3.2419
18.4393,1007,3.2484
18.4436,1007,3.2484
18.4480,1006,3.2452
18.4523,1006,3.2452
18.4567,1007,3.2484
18.4611,1005,3.2419
18.4655,1006,3.2452
18.4698,1006,3.2452
18.4741,1007,3.2484
18.4785,1007,3.2484
18.4830,1007,3.2484
18.4874,1006,3.2452
18.4918,1008,3.2516
18.4968,1006,3.2452
18.5012,1007,3.2484
18.5060,1005,3.2419
18.5104,1005,3.2419
18.5149,1006,3.2452
18.5193,1006,3.2452
18.5237,1006,3.2452
18.5280,1005,3.2419
18.5331,1007,3.2484
18.5381,1006,3.2452
18.5425,1006,3.2452
18.5469,1007,3.2484
18.5512,1006,3.2452
18.5557,1005,3.2419
18.5601,1006,3.2452
18.5645,1006,3.2452
18.5689,1005,3.2419
18.5732,1005,3.2419
18.5776,1006,3.2452
18.5819,1007,3.2484
18.5863,1005,3.2419
18.5907,1006,3.2452
18.5950,1006,3.2452
18.6000,1005,3.2419
18.6044,1005,3.2419
18.6087,1005,3.2419
18.6131,1006,3.2452
18.6174,1007,3.2484
18.6218,1003,3.2355
18.6262,1006,3.2452
18.6305,1005,3.2419
18.6349,1006,3.2452
18.6392,1005,3.2419
18.6435,1004,3.2387
18.6479,1005,3.2419
18.6522,1006,3.2452
18.6565,1005,3.2419
18.6608,1006,3.2452
18.6652,1005,3.2419
18.6695,1007,3.2484
18.6738,1006,3.2452
18.6781,1006,3.2452
18.6827,1006,3.2452
18.6872,1006,3.2452
18.6915,1007,3.2484
18.6958,1005,3.2419
18.7001,1006,3.2452
18.7045,1005,3.2419
18.7088,1007,3.2484
18.7132,1007,3.2484
18.7175,1007,3.2484
18.7218,1006,3.2452
18.7261,1005,3.2419
18.7306,1005,3.2419
18.7351,1004,3.2387
18.7395,1005,3.2419
18.7446,1005,3.2419
18.7490,1007,3.2484
18.7534,1007,3.2484
18.7578,1007,3.2484
18.7622,1004,3.2387
18.7666,1005,3.2419
18.7711,1007,3.2484
18.7755,1007,3.2484
18.7800,1006,3.2452
18.7844,1004,3.2387
18.7888,1007,3.2484
18.7932,1004,3.2387
18.7976,1005,3.2419
18.8020,1005,3.2419
18.8075,1005,3.2419
18.8119,1005,3.2419
18.8164,1007,3.2484
18.8208,1005,3.2419
18.8251,1006,3.2452
18.8296,1007,3.2484
18.8347,1007,3.2484
18.8392,1006,3.2452
18.8436,1006,3.2452
18.8484,1006,3.2452
18.8529,1005,3.2419
18.8573,1005,3.2419
18.8617,1005,3.2419
18.8661,1006,3.2452
18.8704,1007,3.2484
18.8749,1005,3.2419
18.8793,1006,3.2452
18.8836,1004,3.2387
18.8881,1007,3.2484
18.8925,1006,3.2452
18.8969,1006,3.2452
18.9013,1006,3.2452
18.9056,1005,3.2419
18.9104,1004,3.2387
18.9150,1006,3.2452
18.9195,1006,3.2452
18.9239,1005,3.2419
18.9283,1005,3.2419
18.9326,1006,3.2452
18.9373,1006,3.2452
18.9417,1005,3.2419
18.9460,1006,3.2452
18.9504,1006,3.2452
18.9561,1006,3.2452
18.9605,1005,3.2419
18.9649,1006,3.2452
18.9692,1006,3.2452
18.9736,1007,3.2484
18.9780,1007,3.2484
18.9824,1006,3.2452
18.9868,1007,3.2484
18.9922,1004,3.2387
18.9980,1007,3.2484
19.0023,1006,3.2452
19.0068,1006,3.2452
19.0113,1007,3.2484
19.0157,1006,3.2452
19.0202,1006,3.2452
19.0245,1005,3.2419
19.0289,1006,3.2452
19.0332,1006,3.2452
19.0376,1005,3.2419
19.0426,1005,3.2419
19.0470,1005,3.2419
19.0513,1006,3.2452
19.0556,1005,3.2419
19.0600,1007,3.2484
19.0643,1006,3.2452
19.0686,1006,3.2452
19.0729,1004,3.2387
19.0773,1006,3.2452
19.0816,1006,3.2452
19.0859,1004,3.2387
19.0903,1006,3.2452
19.0947,1004,3.2387
19.0991,1006,3.2452
19.1035,1005,3.2419
19.1078,1007,3.2484
19.1121,1006,3.2452
19.1170,1006,3.2452
19.1214,1006,3.2452
19.1258,1006,3.2452
19.1305,1004,3.2387
19.1350,1004,3.2387
19.1397,1006,3.2452
19.1442,1006,3.2452
19.1486,1007,3.2484
19.1529,1007,3.2484
19.1572,1007,3.2484
19.1616,1005,3.2419
19.1660,1006,3.2452
19.1704,1004,3.2387
19.1749,1005,3.2419
19.1793,1007,3.2484
19.1837,1006,3.2452
19.1880,1006,3.2452
19.1924,1004,3.2387
19.1969,1006,3.2452
19.2013,1007,3.2484
19.2058,1006,3.2452
19.2104,1006,3.2452
19.2150,1007,3.2484
19.2195,1007,3.2484
19.2252,1006,3.2452
19.2325,1007,3.2484
19.2375,1005,3.2419
19.2422,1007,3.2484
19.2467,1007,3.2484
19.2513,1007,3.2484
19.2559,1006,3.2452
19.2604,1006,3.2452
19.2653,1005,3.2419
19.2700,1007,3.2484
19.2746,1003,3.2355
19.2792,1006,3.2452
19.2837,1005,3.2419
19.2883,1006,3.2452
19.2928,1006,3.2452
19.2974,1005,3.2419
19.3019,1007,3.2484
19.3065,1005,3.2419
19.3113,1007,3.2484
19.3159,1004,3.2387
19.3207,1003,3.2355
19.3252,1005,3.2419
19.3298,1007,3.2484
19.3342,1006,3.2452
19.3388,1005,3.2419
19.3433,1006,3.2452
19.3478,1006,3.2452
19.3523,1007,3.2484
19.3569,1006,3.2452
19.3613,1005,3.2419
19.3667,1008,3.2516
19.3711,1005,3.2419
19.3757,1006,3.2452
19.3802,1005,3.2419
19.3848,1005,3.2419
19.3893,1005,3.2419
19.3938,1007,3.2484
19.3983,1005,3.2419
19.4028,1006,3.2452
19.4083,1006,3.2452
19.4127,1006,3.2452
19.4173,1005,3.2419
19.4217,1007,3.2484
19.4262,1005,3.2419
19.4307,1007,3.2484
19.4353,1007,3.2484
19.4398,1006,3.2452
19.4443,1007,3.2484
19.4498,1006,3.2452
19.4543,1003,3.2355
19.4588,1003,3.2355
19.4634,1006,3.2452
19.4679,1003,3.2355
19.4723,1006,3.2452
19.4769,1005,3.2419
19.4814,1007,3.2484
19.4859,1007,3.2484
19.4904,1006,3.2452
19.4949,1007,3.2484
19.4995,1005,3.2419
19.5040,1008,3.2516
19.5085,1005,3.2419
19.5130,1006,3.2452
19.5175,1007,3.2484
19.5220,1005,3.2419
19.5265,1006,3.2452
19.5310,1006,3.2452
19.5355,1006,3.2452
19.5400,1007,3.2484
19.5446,1005,3.2419
19.5491,1007,3.2484
19.5543,1005,3.2419
19.5587,1005,3.2419
19.5633,1006,3.2452
19.5678,1003,3.2355
19.5723,1005,3.2419
19.5768,1006,3.2452
19.5813,1006,3.2452
19.5858,1007,3.2484
19.5903,1007,3.2484
19.5959,1006,3.2452
19.6004,1006,3.2452
19.6049,1005,3.2419
19.6095,1006,3.2452
19.6139,1007,3.2484
19.6184,1007,3.2484
19.6230,1007,3.2484
19.6275,1006,3.2452
19.6320,1007,3.2484
19.6375,1005,3.2419
19.6420,1004,3.2387
19.6465,1005,3.2419
19.6510,1006,3.2452
19.6555,1003,3.2355
19.6600,1006,3.2452
19.6645,1005,3.2419
19.6690,1005,3.2419
19.6735,1005,3.2419
19.6791,1007,3.2484
19.6835,1006,3.2452
19.6880,1007,3.2484
19.6926,1007,3.2484
19.6971,1007,3.2484
19.7016,1006,3.2452
19.7061,1006,3.2452
19.7106,1004,3.2387
19.7151,1006,3.2452
19.7206,1005,3.2419
19.7251,1006,3.2452
19.7297,1004,3.2387
19.7347,1007,3.2484
19.7393,1007,3.2484
19.7438,1006,3.2452
19.7483,1006,3.2452
19.7528,1006,3.2452
19.7573,1007,3.2484
19.7622,1004,3.2387
19.7667,1007,3.2484
19.7712,1005,3.2419
19.7757,1005,3.2419
19.7802,1006,3.2452
19.7848,1007,3.2484
19.7894,1007,3.2484
19.7939,1006,3.2452
19.7984,1005,3.2419
19.8038,1007,3.2484
19.8083,1006,3.2452
19.8128,1006,3.2452
19.8173,1003,3.2355
19.8218,1006,3.2452
19.8264,1006,3.2452
19.8309,1007,3.2484
19.8354,1007,3.2484
19.8399,1006,3.2452
19.8455,1006,3.2452
19.8500,1007,3.2484
19.8545,1007,3.2484
19.8590,1005,3.2419
19.8635,1007,3.2484
19.8680,1006,3.2452
19.8726,1006,3.2452
19.8771,1005,3.2419
19.8816,1007,3.2484
19.8871,1006,3.2452
19.8916,1005,3.2419
19.8961,1006,3.2452
19.9006,1005,3.2419
19.9051,1006,3.2452
19.9096,1006,3.2452
19.9142,1006,3.2452
19.9187,1007,3.2484
19.9233,1006,3.2452
19.9287,1005,3.2419
19.9332,1006,3.2452
19.9377,1005,3.2419
19.9422,1004,3.2387
19.9467,1007,3.2484
19.9512,1006,3.2452
19.9558,1006,3.2452
19.9602,1006,3.2452
19.9648,1006,3.2452
19.9703,1006,3.2452
19.9749,1006,3.2452
19.9794,1006,3.2452
19.9839,1004,3.2387
19.9885,1006,3.2452
19.9930,1006,3.2452
19.9975,1007,3.2484
20.0020,1003,3.2355
20.0066,1006,3.2452
20.0120,1005,3.2419
20.0165,1006,3.2452
20.0311,1007,3.2484
20.0357,1003,3.2355
20.0403,1005,3.2419
20.0450,1006,3.2452
20.0496,1004,3.2387
20.0542,1005,3.2419
20.0587,1005,3.2419
20.0633,1006,3.2452
20.0678,1007,3.2484
20.0722,1005,3.2419
20.0767,1006,3.2452
20.0813,1005,3.2419
20.0858,1006,3.2452
20.0903,1006,3.2452
20.0951,1007,3.2484
20.0996,1005,3.2419
20.1041,1007,3.2484
20.1087,1005,3.2419
20.1132,1005,3.2419
20.1176,1004,3.2387
20.1222,1003,3.2355
20.1267,1006,3.2452
20.1312,1005,3.2419
20.1369,1006,3.2452
20.1414,1003,3.2355
20.1460,1005,3.2419
20.1505,1005,3.2419
20.1550,1006,3.2452
20.1595,1007,3.2484
20.1641,1006,3.2452
20.1687,1006,3.2452
20.1732,1006,3.2452
20.1787,1007,3.2484
20.1832,1006,3.2452
20.1878,1004,3.2387
20.1923,1006,3.2452
20.1968,1006,3.2452
20.2013,1007,3.2484
20.2058,1006,3.2452
20.2104,1007,3.2484
20.2150,1004,3.2387
20.2203,1005,3.2419
20.2249,1005,3.2419
20.2295,1007,3.2484
20.2340,1006,3.2452
20.2385,1005,3.2419
20.2430,1005,3.2419
20.2475,1005,3.2419
20.2520,1007,3.2484
20.2566,1006,3.2452
20.2619,1007,3.2484
20.2664,1006,3.2452
20.2709,1007,3.2484
20.2754,1006,3.2452
20.2799,1005,3.2419
20.2844,1005,3.2419
20.2890,1006,3.2452
20.2935,1004,3.2387
20.2983,1007,3.2484
20.3035,1005,3.2419
20.3086,1004,3.2387
20.3132,1006,3.2452
20.3185,1006,3.2452
20.3230,1007,3.2484
20.3286,1006,3.2452
20.3331,1006,3.2452
20.3376,1007,3.2484
20.3421,1005,3.2419
20.3466,1007,3.2484
20.3512,1003,3.2355
20.3557,1006,3.2452
20.3602,1005,3.2419
20.3659,1005,3.2419
20.3704,1006,3.2452
20.3749,1005,3.2419
20.3794,1006,3.2452
20.3839,1004,3.2387
20.3884,1007,3.2484
20.3929,1007,3.2484
20.3974,1004,3.2387
20.4019,1006,3.2452
20.4072,1005,3.2419
20.4117,1006,3.2452
20.4162,1005,3.2419
20.4207,1006,3.2452
20.4252,1005,3.2419
20.4297,1005,3.2419
20.4343,1005,3.2419
20.4387,1006,3.2452
20.4432,1004,3.2387
20.4487,1007,3.2484
20.4533,1005,3.2419
20.4577,1005,3.2419
20.4623,1007,3.2484
20.4668,1005,3.2419
20.4713,1006,3.2452
20.4758,1007,3.2484
20.4803,1006,3.2452
20.4849,1007,3.2484
20.4902,1006,3.2452
20.4948,1004,3.2387
20.4993,1005,3.2419
20.5038,1005,3.2419
20.5083,1006,3.2452
20.5131,1006,3.2452
20.5176,1007,3.2484
20.5221,1007,3.2484
20.5267,1007,3.2484
20.5318,1006,3.2452
20.5363,1006,3.2452
20.5408,1006,3.2452
20.5453,1007,3.2484
20.5498,1007,3.2484
20.5543,1006,3.2452
20.5588,1006,3.2452
20.5633,1006,3.2452
20.5678,1005,3.2419
20.5733,1005,3.2419
20.5778,1006,3.2452
20.5823,1006,3.2452
20.5868,1007,3.2484
20.5912,1006,3.2452
20.5958,1005,3.2419
20.6003,1007,3.2484
20.6048,1005,3.2419
20.6093,1004,3.2387
20.6148,1005,3.2419
20.6193,1005,3.2419
20.6247,1006,3.2452
20.6292,1007,3.2484
20.6337,1005,3.2419
20.6383,1006,3.2452
20.6428,1005,3.2419
20.6473,1004,3.2387
20.6518,1007,3.2484
20.6564,1007,3.2484
20.6609,1006,3.2452
20.6654,1007,3.2484
20.6699,1005,3.2419
20.6744,1006,3.2452
20.6789,1005,3.2419
20.6834,1006,3.2452
20.6879,1006,3.2452
20.6924,1006,3.2452
20.6979,1006,3.2452
20.7024,1006,3.2452
20.7069,1007,3.2484
20.7114,1007,3.2484
20.7160,1006,3.2452
20.7212,1007,3.2484
20.7257,1006,3.2452
20.7302,1005,3.2419
20.7347,1006,3.2452
20.7395,1005,3.2419
20.7441,1005,3.2419
20.7486,1005,3.2419
20.7531,1006,3.2452
20.7576,1003,3.2355
20.7621,1006,3.2452
20.7666,1006,3.2452
20.7710,1006,3.2452
20.7754,1006,3.2452
20.7797,1005,3.2419
20.7841,1005,3.2419
20.7885,1006,3.2452
20.7929,1006,3.2452
20.7972,1006,3.2452
20.8019,1007,3.2484
20.8063,1006,3.2452
20.8107,1007,3.2484
20.8151,1006,3.2452
20.8194,1003,3.2355
20.8237,1006,3.2452
20.8282,1006,3.2452
20.8326,1003,3.2355
20.8369,1007,3.2484
20.8412,1006,3.2452
20.8456,1006,3.2452
20.8500,1006,3.2452
20.8543,1006,3.2452
20.8587,1007,3.2484
20.8636,1007,3.2484
20.8680,1007,3.2484
20.8723,1006,3.2452
20.8766,1006,3.2452
20.8809,1006,3.2452
20.8853,1005,3.2419
20.8896,1008,3.2516
20.8939,1006,3.2452
20.8982,1006,3.2452
20.9025,1004,3.2387
20.9068,1007,3.2484
20.9116,1005,3.2419
20.9159,1006,3.2452
20.9202,1005,3.2419
20.9246,1005,3.2419
20.9296,1008,3.2516
20.9340,1006,3.2452
20.9384,1005,3.2419
20.9427,1006,3.2452
20.9470,1007,3.2484
20.9514,1005,3.2419
20.9557,1005,3.2419
20.9600,1005,3.2419
20.9643,1006,3.2452
20.9687,1005,3.2419
20.9731,1006,3.2452
20.9774,1005,3.2419
20.9817,1006,3.2452
20.9861,1005,3.2419
20.9918,1004,3.2387
20.9962,1007,3.2484
21.0006,1007,3.2484
21.0049,1004,3.2387
21.0094,1004,3.2387
21.0138,1007,3.2484
21.0183,1006,3.2452
21.0229,1003,3.2355
21.0273,1006,3.2452
21.0317,1006,3.2452
21.0362,1005,3.2419
21.0410,1006,3.2452
21.0454,1005,3.2419
21.0499,1006,3.2452
21.0543,1004,3.2387
21.0587,1005,3.2419
21.0633,1005,3.2419
21.0678,1006,3.2452
21.0722,1006,3.2452
21.0766,1006,3.2452
21.0811,1007,3.2484
21.0855,1003,3.2355
21.0899,1007,3.2484
21.0954,1006,3.2452
21.0998,1003,3.2355
21.1043,1006,3.2452
21.1087,1004,3.2387
21.1136,1007,3.2484
21.1181,1007,3.2484
21.1225,1005,3.2419
21.1277,1006,3.2452
21.1324,1005,3.2419
21.1369,1005,3.2419
21.1412,1006,3.2452
21.1456,1006,3.2452
21.1499,1007,3.2484
21.1543,1005,3.2419
21.1587,1007,3.2484
21.1631,1006,3.2452
21.1684,1005,3.2419
21.1738,1007,3.2484
21.1783,1004,3.2387
21.1826,1006,3.2452
21.1870,1006,3.2452
21.1913,1004,3.2387
21.1956,1005,3.2419
21.2000,1007,3.2484
21.2044,1004,3.2387
21.2088,1008,3.2516
21.2131,1006,3.2452
21.2175,1007,3.2484
21.2218,1006,3.2452
21.2262,1005,3.2419
21.2306,1005,3.2419
21.2349,1004,3.2387
21.2392,1004,3.2387
21.2436,1004,3.2387
21.2480,1005,3.2419
21.2522,1006,3.2452
21.2567,1007,3.2484
21.2611,1006,3.2452
21.2654,1004,3.2387
21.2696,1007,3.2484
21.2738,1006,3.2452
21.2780,1005,3.2419
21.2823,1007,3.2484
21.2864,1005,3.2419
21.2906,1005,3.2419
21.2948,1004,3.2387
21.2991,1007,3.2484
21.3034,1004,3.2387
21.3077,1005,3.2419
21.3120,1005,3.2419
21.3163,1005,3.2419
21.3206,1007,3.2484
21.3249,1004,3.2387
21.3291,1007,3.2484
21.3334,1006,3.2452
21.3376,1005,3.2419
21.3427,1006,3.2452
21.3470,1007,3.2484
21.3512,1005,3.2419
21.3555,1006,3.2452
21.3597,1007,3.2484
21.3640,1007,3.2484
21.3682,1005,3.2419
21.3725,1003,3.2355
21.3767,1005,3.2419
21.3809,1005,3.2419
21.3852,1008,3.2516
21.3893,1007,3.2484
21.3935,1004,3.2387
21.3977,1004,3.2387
21.4019,1005,3.2419
21.4061,1007,3.2484
21.4103,1005,3.2419
21.4145,1005,3.2419
21.4187,1007,3.2484
21.4230,1006,3.2452
21.4273,1008,3.2516
21.4316,1006,3.2452
21.4359,1007,3.2484
21.4409,1004,3.2387
21.4452,1006,3.2452
21.4495,1004,3.2387
21.4538,1006,3.2452
21.4580,1005,3.2419
21.4622,1005,3.2419
21.4667,1005,3.2419
21.4710,1005,3.2419
21.4753,1004,3.2387
21.4795,1004,3.2387
21.4838,1006,3.2452
21.4881,1007,3.2484
21.4923,1008,3.2516
21.4966,1007,3.2484
21.5008,1006,3.2452
21.5050,1007,3.2484
21.5093,1006,3.2452
21.5135,1005,3.2419
21.5177,1005,3.2419
21.5224,1004,3.2387
21.5266,1006,3.2452
21.5309,1005,3.2419
21.5355,1003,3.2355
21.5398,1005,3.2419
21.5440,1005,3.2419
21.5483,1006,3.2452
21.5525,1006,3.2452
21.5567,1006,3.2452
21.5609,1007,3.2484
21.5652,1005,3.2419
21.5695,1006,3.2452
21.5738,1007,3.2484
21.5781,1006,3.2452
21.5824,1007,3.2484
21.5867,1004,3.2387
21.5910,1005,3.2419
21.5953,1007,3.2484
21.5996,1006,3.2452
21.6042,1005,3.2419
21.6085,1006,3.2452
21.6127,1007,3.2484
21.6170,1007,3.2484
21.6212,1006,3.2452
21.6255,1004,3.2387
21.6298,1007,3.2484
21.6340,1006,3.2452
21.6382,1006,3.2452
21.6424,1005,3.2419
21.6466,1008,3.2516
21.6509,1007,3.2484
21.6551,1005,3.2419
21.6593,1004,3.2387
21.6635,1006,3.2452
21.6680,1008,3.2516
21.6722,1007,3.2484
21.6764,1006,3.2452
21.6806,1006,3.2452
21.6848,1006,3.2452
21.6891,1007,3.2484
21.6933,1006,3.2452
21.6976,1003,3.2355
21.7019,1005,3.2419
21.7065,1004,3.2387
21.7107,1005,3.2419
21.7151,1007,3.2484
21.7194,1005,3.2419
21.7236,1007,3.2484
21.7279,1006,3.2452
21.7322,1006,3.2452
21.7365,1004,3.2387
21.7407,1006,3.2452
21.7449,1004,3.2387
21.7492,1005,3.2419
21.7534,1005,3.2419
21.7577,1006,3.2452
21.7620,1004,3.2387
21.7662,1007,3.2484
21.7705,1005,3.2419
21.7748,1007,3.2484
21.7790,1006,3.2452
21.7832,1005,3.2419
21.7874,1007,3.2484
21.7916,1006,3.2452
21.7958,1005,3.2419
21.8000,1007,3.2484
21.8042,1007,3.2484
21.8087,1007,3.2484
21.8129,1006,3.2452
21.8171,1004,3.2387
21.8213,1004,3.2387
21.8258,1005,3.2419
21.8301,1007,3.2484
21.8344,1004,3.2387
21.8387,1007,3.2484
21.8430,1006,3.2452
21.8473,1007,3.2484
21.8516,1006,3.2452
21.8561,1007,3.2484
21.8604,1007,3.2484
21.8648,1004,3.2387
21.8698,1008,3.2516
21.8742,1006,3.2452
21.8784,1006,3.2452
21.8827,1005,3.2419
21.8870,1005,3.2419
21.8913,1006,3.2452
21.8956,1004,3.2387
21.8999,1004,3.2387
21.9041,1005,3.2419
21.9084,1007,3.2484
21.9127,1006,3.2452
21.9170,1005,3.2419
21.9213,1007,3.2484
21.9257,1007,3.2484
21.9305,1004,3.2387
21.9348,1004,3.2387
21.9391,1006,3.2452
21.9434,1006,3.2452
21.9477,1006,3.2452
21.9520,1004,3.2387
21.9563,1006,3.2452
21.9605,1006,3.2452
21.9648,1005,3.2419
21.9691,1005,3.2419
21.9734,1007,3.2484
21.9777,1006,3.2452
21.9820,1007,3.2484
21.9863,1007,3.2484
21.9905,1006,3.2452
21.9948,1006,3.2452
21.9992,1007,3.2484
22.0034,1006,3.2452
22.0077,1005,3.2419
22.0120,1007,3.2484
22.0163,1006,3.2452
22.0208,1006,3.2452
22.0251,1005,3.2419
22.0294,1006,3.2452
22.0338,1007,3.2484
22.0380,1006,3.2452
22.0423,1005,3.2419
22.0465,1005,3.2419
22.0508,1006,3.2452
22.0551,1007,3.2484
22.0594,1003,3.2355
22.0637,1007,3.2484
22.0679,1006,3.2452
22.0721,1006,3.2452
22.0764,1004,3.2387
22.0806,1008,3.2516
22.0849,1005,3.2419
22.0890,1006,3.2452
22.0932,1004,3.2387
22.0974,1005,3.2419
22.1017,1006,3.2452
22.1059,1007,3.2484
22.1101,1007,3.2484
22.1143,1002,3.2323
22.1185,1006,3.2452
22.1227,1004,3.2387
22.1270,1007,3.2484
22.1312,1005,3.2419
22.1357,1006,3.2452
22.1400,1005,3.2419
22.1443,1004,3.2387
22.1486,1007,3.2484
22.1529,1006,3.2452
22.1573,1007,3.2484
22.1615,1007,3.2484
22.1658,1006,3.2452
22.1700,1006,3.2452
22.1742,1007,3.2484
22.1785,1004,3.2387
22.1828,1007,3.2484
22.1870,1007,3.2484
22.1913,1006,3.2452
22.1955,1006,3.2452
22.1998,1004,3.2387
22.2041,1004,3.2387
22.2083,1004,3.2387
22.2125,1006,3.2452
22.2167,1007,3.2484
22.2209,1007,3.2484
22.2252,1006,3.2452
22.2294,1005,3.2419
22.2337,1005,3.2419
22.2379,1007,3.2484
22.2422,1004,3.2387
22.2464,1005,3.2419
22.2506,1007,3.2484
22.2548,1005,3.2419
22.2590,1004,3.2387
22.2632,1007,3.2484
22.2675,1005,3.2419
22.2717,1006,3.2452
22.2761,1005,3.2419
22.2804,1007,3.2484
22.2848,1005,3.2419
22.2891,1007,3.2484
22.2933,1007,3.2484
22.2976,1007,3.2484
22.3019,1005,3.2419
22.3063,1007,3.2484
22.3106,1006,3.2452
22.3149,1007,3.2484
22.3191,1004,3.2387
22.3233,1006,3.2452
22.3277,1003,3.2355
22.3320,1008,3.2516
22.3362,1004,3.2387
22.3405,1007,3.2484
22.3448,1006,3.2452
22.3491,1007,3.2484
22.3533,1005,3.2419
22.3575,1004,3.2387
22.3618,1007,3.2484
22.3660,1006,3.2452
22.3702,1005,3.2419
22.3744,1006,3.2452
22.3787,1006,3.2452
22.3829,1006,3.2452
22.3871,1006,3.2452
22.3913,1003,3.2355
22.3955,1006,3.2452
22.3997,1005,3.2419
22.4039,1007,3.2484
22.4082,1004,3.2387
22.4124,1006,3.2452
22.4166,1006,3.2452
22.4208,1005,3.2419
22.4251,1007,3.2484
22.4294,1005,3.2419
22.4337,1005,3.2419
22.4380,1007,3.2484
22.4427,1006,3.2452
22.4470,1005,3.2419
22.4513,1006,3.2452
22.4556,1005,3.2419
22.4599,1007,3.2484
22.4641,1007,3.2484
22.4684,1007,3.2484
22.4726,1006,3.2452
22.4769,1005,3.2419
22.4812,1007,3.2484
22.4855,1005,3.2419
22.4898,1005,3.2419
22.4941,1008,3.2516
22.4984,1005,3.2419
22.5026,1006,3.2452
22.5069,1007,3.2484
22.5111,1005,3.2419
22.5153,1006,3.2452
22.5195,1004,3.2387
22.5237,1005,3.2419
22.5289,1004,3.2387
22.5331,1007,3.2484
22.5373,1006,3.2452
22.5415,1006,3.2452
22.5457,1006,3.2452
22.5500,1007,3.2484
22.5541,1007,3.2484
22.5583,1007,3.2484
22.5626,1006,3.2452
22.5668,1006,3.2452
22.5711,1007,3.2484
22.5754,1006,3.2452
22.5797,1005,3.2419
22.5840,1005,3.2419
22.5883,1006,3.2452
22.5926,1004,3.2387
22.5968,1004,3.2387
22.6010,1007,3.2484
22.6053,1006,3.2452
22.6096,1005,3.2419
22.6139,1007,3.2484
22.6182,1006,3.2452
22.6224,1006,3.2452
22.6268,1007,3.2484
22.6311,1004,3.2387
22.6354,1007,3.2484
22.6396,1007,3.2484
22.6439,1007,3.2484
22.6481,1007,3.2484
22.6523,1008,3.2516
22.6565,1006,3.2452
22.6607,1005,3.2419
22.6649,1006,3.2452
22.6691,1007,3.2484
22.6734,1007,3.2484
22.6776,1007,3.2484
22.6818,1007,3.2484
22.6861,1007,3.2484
22.6903,1003,3.2355
22.6945,1005,3.2419
22.6987,1006,3.2452
22.7030,1006,3.2452
22.7073,1007,3.2484
22.7116,1007,3.2484
22.7159,1007,3.2484
22.7202,1005,3.2419
22.7247,1004,3.2387
22.7292,1006,3.2452
22.7335,1007,3.2484
22.7378,1006,3.2452
22.7422,1005,3.2419
22.7465,1006,3.2452
22.7507,1007,3.2484
22.7551,1005,3.2419
22.7594,1005,3.2419
22.7636,1007,3.2484
22.7679,1005,3.2419
22.7721,1005,3.2419
22.7764,1006,3.2452
22.7806,1006,3.2452
22.7848,1006,3.2452
22.7890,1005,3.2419
22.7932,1004,3.2387
22.7974,1005,3.2419
22.8016,1007,3.2484
22.8058,1007,3.2484
22.8100,1006,3.2452
22.8142,1004,3.2387
22.8185,1003,3.2355
22.8227,1007,3.2484
22.8269,1006,3.2452
22.8312,1004,3.2387
22.8355,1006,3.2452
22.8398,1007,3.2484
22.8441,1005,3.2419
22.8484,1005,3.2419
22.8527,1005,3.2419
22.8570,1005,3.2419
22.8612,1006,3.2452
22.8655,1005,3.2419
22.8698,1007,3.2484
22.8740,1006,3.2452
22.8783,1006,3.2452
22.8826,1006,3.2452
22.8869,1007,3.2484
22.8911,1007,3.2484
22.8953,1006,3.2452
22.8996,1007,3.2484
22.9039,1004,3.2387
22.9080,1004,3.2387
22.9122,1004,3.2387
22.9170,1004,3.2387
22.9212,1007,3.2484
22.9254,1004,3.2387
22.9298,1005,3.2419
22.9341,1006,3.2452
22.9384,1005,3.2419
22.9426,1005,3.2419
22.9468,1005,3.2419
22.9509,1007,3.2484
22.9552,1004,3.2387
22.9594,1007,3.2484
22.9637,1007,3.2484
22.9680,1003,3.2355
22.9722,1006,3.2452
22.9765,1005,3.2419
22.9809,1005,3.2419
22.9852,1006,3.2452
22.9895,1006,3.2452
22.9938,1004,3.2387
22.9981,1005,3.2419
23.0024,1007,3.2484
23.0067,1007,3.2484
23.0109,1007,3.2484
23.0152,1005,3.2419
23.0194,1005,3.2419
23.0237,1005,3.2419
23.0280,1005,3.2419
23.0322,1007,3.2484
23.0365,1004,3.2387
23.0408,1006,3.2452
23.0450,1007,3.2484
23.0492,1004,3.2387
23.0534,1007,3.2484
23.0576,1006,3.2452
23.0619,1006,3.2452
23.0661,1007,3.2484
23.0703,1004,3.2387
23.0745,1004,3.2387
23.0787,1007,3.2484
23.0829,1007,3.2484
23.0871,1007,3.2484
23.0913,1006,3.2452
23.0955,1004,3.2387
23.0997,1005,3.2419
23.1040,1006,3.2452
23.1083,1004,3.2387
23.1126,1004,3.2387
23.1172,1007,3.2484
23.1215,1005,3.2419
23.1258,1005,3.2419
23.1306,1005,3.2419
23.1349,1006,3.2452
23.1392,1006,3.2452
23.1435,1006,3.2452
23.1479,1006,3.2452
23.1521,1006,3.2452
23.1563,1007,3.2484
23.1606,1005,3.2419
23.1648,1005,3.2419
23.1691,1003,3.2355
23.1733,1007,3.2484
23.1776,1006,3.2452
23.1818,1004,3.2387
23.1861,1004,3.2387
23.1904,1004,3.2387
23.1946,1006,3.2452
23.1990,1005,3.2419
23.2033,1006,3.2452
23.2074,1007,3.2484
23.2116,1005,3.2419
23.2158,1005,3.2419
23.2200,1005,3.2419
23.2242,1003,3.2355
23.2285,1004,3.2387
23.2327,1006,3.2452
23.2369,1008,3.2516
23.2412,1007,3.2484
23.2454,1007,3.2484
23.2496,1004,3.2387
23.2539,1007,3.2484
23.2582,1005,3.2419
23.2625,1005,3.2419
23.2668,1007,3.2484
23.2711,1006,3.2452
23.2754,1005,3.2419
23.2797,1007,3.2484
23.2840,1008,3.2516
23.2883,1005,3.2419
23.2926,1005,3.2419
23.2968,1006,3.2452
23.3012,1007,3.2484
23.3055,1005,3.2419
23.3097,1006,3.2452
23.3140,1005,3.2419
23.3183,1007,3.2484
23.3225,1008,3.2516
23.3268,1005,3.2419
23.3311,1006,3.2452
23.3354,1004,3.2387
23.3397,1006,3.2452
23.3439,1007,3.2484
23.3482,1003,3.2355
23.3525,1004,3.2387
23.3568,1006,3.2452
23.3611,1004,3.2387
23.3654,1005,3.2419
23.3698,1005,3.2419
23.3742,1006,3.2452
23.3785,1006,3.2452
23.3830,1005,3.2419
23.3873,1007,3.2484
23.3916,1007,3.2484
23.3959,1007,3.2484
23.4002,1007,3.2484
23.4045,1007,3.2484
23.4088,1006,3.2452
23.4131,1007,3.2484
23.4174,1005,3.2419
23.4216,1006,3.2452
23.4259,1004,3.2387
23.4302,1005,3.2419
23.4355,1004,3.2387
23.4398,1004,3.2387
23.4445,1007,3.2484
23.4488,1004,3.2387
23.4531,1005,3.2419
23.4574,1006,3.2452
23.4616,1008,3.2516
23.4659,1004,3.2387
23.4702,1005,3.2419
23.4745,1005,3.2419
23.4788,1005,3.2419
23.4831,1006,3.2452
23.4874,1005,3.2419
23.4917,1006,3.2452
23.4960,1007,3.2484
23.5003,1006,3.2452
23.5046,1007,3.2484
23.5089,1008,3.2516
23.5132,1006,3.2452
23.5175,1007,3.2484
23.5217,1005,3.2419
23.5263,1007,3.2484
23.5306,1007,3.2484
23.5349,1005,3.2419
23.5392,1004,3.2387
23.5435,1006,3.2452
23.5478,1005,3.2419
23.5521,1005,3.2419
23.5564,1006,3.2452
23.5607,1005,3.2419
23.5650,1004,3.2387
23.5693,1007,3.2484
23.5736,1005,3.2419
23.5779,1006,3.2452
23.5821,1007,3.2484
23.5865,1004,3.2387
23.5907,1006,3.2452
23.5951,1006,3.2452
23.5994,1006,3.2452
23.6036,1006,3.2452
23.6082,1007,3.2484
23.6125,1007,3.2484
23.6168,1006,3.2452
23.6211,1007,3.2484
23.6254,1006,3.2452
23.6297,1005,3.2419
23.6340,1007,3.2484
23.6383,1006,3.2452
23.6427,1006,3.2452
23.6471,1007,3.2484
23.6513,1004,3.2387
23.6557,1004,3.2387
23.6599,1006,3.2452
23.6642,1006,3.2452
23.6685,1007,3.2484
23.6728,1005,3.2419
23.6771,1005,3.2419
23.6815,1004,3.2387
23.6858,1005,3.2419
23.6901,1005,3.2419
23.6944,1005,3.2419
23.6987,1006,3.2452
23.7030,1007,3.2484
23.7073,1005,3.2419
23.7116,1005,3.2419
23.7159,1007,3.2484
23.7202,1006,3.2452
23.7245,1004,3.2387
23.7288,1006,3.2452
23.7331,1004,3.2387
23.7375,1007,3.2484
23.7418,1006,3.2452
23.7461,1006,3.2452
23.7504,1007,3.2484
23.7547,1005,3.2419
23.7590,1007,3.2484
23.7633,1006,3.2452
23.7676,1007,3.2484
23.7720,1007,3.2484
23.7763,1004,3.2387
23.7806,1004,3.2387
23.7849,1007,3.2484
23.7892,1006,3.2452
23.7935,1004,3.2387
23.7978,1004,3.2387
23.8021,1006,3.2452
23.8064,1006,3.2452
23.8106,1004,3.2387
23.8149,1006,3.2452
23.8192,1005,3.2419
23.8235,1007,3.2484
23.8278,1008,3.2516
23.8321,1007,3.2484
23.8364,1006,3.2452
23.8407,1005,3.2419
23.8450,1007,3.2484
23.8492,1006,3.2452
23.8539,1005,3.2419
23.8582,1004,3.2387
23.8624,1006,3.2452
23.8667,1005,3.2419
23.8710,1006,3.2452
23.8753,1006,3.2452
23.8796,1007,3.2484
23.8842,1004,3.2387
23.8885,1007,3.2484
23.8928,1005,3.2419
23.8971,1005,3.2419
23.9014,1006,3.2452
23.9057,1007,3.2484
23.9100,1006,3.2452
23.9143,1007,3.2484
23.9186,1004,3.2387
23.9229,1006,3.2452
23.9272,1006,3.2452
23.9315,1004,3.2387
23.9357,1006,3.2452
23.9401,1005,3.2419
23.9444,1004,3.2387
23.9487,1004,3.2387
23.9529,1007,3.2484
23.9572,1007,3.2484
23.9615,1005,3.2419
23.9658,1005,3.2419
23.9701,1007,3.2484
23.9744,1004,3.2387
23.9787,1007,3.2484
23.9830,1005,3.2419
23.9873,1006,3.2452
23.9917,1005,3.2419
23.9960,1005,3.2419
24.0003,1006,3.2452
24.0047,1007,3.2484
24.0089,1003,3.2355
24.0132,1007,3.2484
24.0175,1007,3.2484
24.0218,1004,3.2387
24.0261,1005,3.2419
24.0304,1005,3.2419
24.0347,1007,3.2484
24.0394,1008,3.2516
24.0437,1008,3.2516
24.0480,1006,3.2452
24.0523,1006,3.2452
24.0566,1004,3.2387
24.0609,1005,3.2419
24.0652,1007,3.2484
24.0695,1006,3.2452
24.0738,1007,3.2484
24.0781,1005,3.2419
24.0824,1007,3.2484
24.0867,1004,3.2387
24.0910,1005,3.2419
24.0953,1007,3.2484
24.0996,1005,3.2419
24.1039,1006,3.2452
24.1082,1006,3.2452
24.1124,1007,3.2484
24.1167,1006,3.2452
24.1210,1006,3.2452
24.1253,1007,3.2484
24.1296,1004,3.2387
24.1343,1007,3.2484
24.1386,1008,3.2516
24.1429,1007,3.2484
24.1472,1005,3.2419
24.1515,1005,3.2419
24.1558,1006,3.2452
24.1601,1007,3.2484
24.1650,1007,3.2484
24.1693,1005,3.2419
24.1736,1006,3.2452
24.1779,1005,3.2419
24.1822,1005,3.2419
24.1865,1005,3.2419
24.1908,1004,3.2387
24.1951,1006,3.2452
24.1993,1005,3.2419
24.2036,1005,3.2419
24.2080,1007,3.2484
24.2122,1005,3.2419
24.2165,1005,3.2419
24.2208,1005,3.2419
24.2251,1007,3.2484
24.2294,1004,3.2387
24.2337,1005,3.2419
24.2380,1005,3.2419
24.2426,1007,3.2484
24.2469,1005,3.2419
24.2512,1006,3.2452
24.2555,1006,3.2452
24.2597,1006,3.2452
24.2639,1005,3.2419
24.2681,1007,3.2484
24.2723,1006,3.2452
24.2765,1005,3.2419
24.2807,1004,3.2387
24.2849,1005,3.2419
24.2891,1003,3.2355
24.2934,1006,3.2452
24.2976,1006,3.2452
24.3018,1006,3.2452
24.3060,1004,3.2387
24.3103,1006,3.2452
24.3147,1004,3.2387
24.3191,1004,3.2387
24.3235,1006,3.2452
24.3287,1007,3.2484
24.3332,1006,3.2452
24.3375,1006,3.2452
24.3419,1007,3.2484
24.3464,1004,3.2387
24.3508,1006,3.2452
24.3552,1005,3.2419
24.3595,1005,3.2419
24.3639,1006,3.2452
24.3683,1007,3.2484
24.3727,1007,3.2484
24.3771,1007,3.2484
24.3816,1007,3.2484
24.3865,1007,3.2484
24.3909,1007,3.2484
24.3954,1006,3.2452
24.3997,1005,3.2419
24.4041,1007,3.2484
24.4128,1007,3.2484
24.4172,1005,3.2419
24.4216,1007,3.2484
24.4259,1006,3.2452
24.4303,1004,3.2387
24.4348,1007,3.2484
24.4391,1005,3.2419
24.4434,1005,3.2419
24.4483,1005,3.2419
24.4527,1008,3.2516
24.4570,1007,3.2484
24.4613,1007,3.2484
24.4657,1006,3.2452
24.4700,1007,3.2484
24.4744,1007,3.2484
24.4787,1007,3.2484
24.4831,1005,3.2419
24.4874,1007,3.2484
24.4918,1005,3.2419
24.4961,1005,3.2419
24.5005,1006,3.2452
24.5049,1004,3.2387
24.5099,1005,3.2419
24.5142,1007,3.2484
24.5186,1006,3.2452
24.5229,1005,3.2419
24.5273,1007,3.2484
24.5316,1006,3.2452
24.5362,1004,3.2387
24.5405,1007,3.2484
24.5449,1004,3.2387
24.5492,1006,3.2452
24.5536,1007,3.2484
24.5579,1004,3.2387
24.5622,1008,3.2516
24.5666,1005,3.2419
24.5715,1007,3.2484
24.5759,1006,3.2452
24.5802,1006,3.2452
24.5845,1006,3.2452
24.5889,1005,3.2419
24.5932,1006,3.2452
24.5976,1006,3.2452
24.6019,1003,3.2355
24.6063,1007,3.2484
24.6106,1006,3.2452
24.6150,1007,3.2484
24.6193,1007,3.2484
24.6237,1007,3.2484
24.6280,1005,3.2419
24.6330,1005,3.2419
24.6373,1004,3.2387
24.6417,1004,3.2387
24.6460,1007,3.2484
24.6504,1004,3.2387
24.6547,1006,3.2452
24.6591,1007,3.2484
24.6635,1004,3.2387
24.6678,1007,3.2484
24.6722,1005,3.2419
24.6765,1006,3.2452
24.6809,1007,3.2484
24.6852,1007,3.2484
24.6896,1007,3.2484
24.6940,1006,3.2452
24.6989,1007,3.2484
24.7033,1007,3.2484
24.7076,1004,3.2387
24.7120,1005,3.2419
24.7164,1007,3.2484
24.7207,1007,3.2484
24.7251,1006,3.2452
24.7294,1007,3.2484
24.7338,1007,3.2484
24.7381,1004,3.2387
24.7425,1006,3.2452
24.7469,1006,3.2452
24.7513,1007,3.2484
24.7564,1007,3.2484
24.7607,1003,3.2355
24.7651,1007,3.2484
24.7694,1005,3.2419
24.7738,1005,3.2419
24.7781,1005,3.2419
24.7825,1005,3.2419
24.7869,1005,3.2419
24.7918,1007,3.2484
24.7961,1007,3.2484
24.8005,1004,3.2387
24.8049,1007,3.2484
24.8093,1003,3.2355
24.8136,1007,3.2484
24.8181,1005,3.2419
24.8224,1007,3.2484
24.8268,1004,3.2387
24.8311,1007,3.2484
24.8355,1007,3.2484
24.8399,1006,3.2452
24.8443,1006,3.2452
24.8487,1006,3.2452
24.8530,1007,3.2484
24.8574,1006,3.2452
24.8618,1007,3.2484
24.8662,1005,3.2419
24.8705,1007,3.2484
24.8749,1004,3.2387
24.8796,1004,3.2387
24.8839,1007,3.2484
24.8883,1003,3.2355
24.8928,1006,3.2452
24.8971,1006,3.2452
24.9015,1006,3.2452
24.9058,1006,3.2452
24.9102,1007,3.2484
24.9145,1006,3.2452
24.9189,1004,3.2387
24.9233,1007,3.2484
24.9276,1006,3.2452
24.9320,1003,3.2355
24.9363,1007,3.2484
24.9412,1007,3.2484
24.9456,1006,3.2452
24.9499,1004,3.2387
24.9543,1006,3.2452
24.9587,1008,3.2516
24.9630,1005,3.2419
24.9674,1005,3.2419
24.9717,1004,3.2387
24.9761,1006,3.2452
24.9805,1006,3.2452
24.9849,1007,3.2484
24.9892,1006,3.2452
24.9938,1007,3.2484
24.9981,1007,3.2484
25.0029,1004,3.2387
25.0072,1006,3.2452
25.0120,1006,3.2452
25.0265,1006,3.2452
25.0309,1006,3.2452
25.0356,1004,3.2387
25.0401,1007,3.2484
25.0445,1006,3.2452
25.0489,1007,3.2484
25.0532,1004,3.2387
25.0576,1008,3.2516
25.0620,1007,3.2484
25.0663,1007,3.2484
25.0707,1006,3.2452
25.0751,1007,3.2484
25.0795,1006,3.2452
25.0838,1004,3.2387
25.0882,1007,3.2484
25.0927,1004,3.2387
25.0970,1006,3.2452
25.1014,1007,3.2484
25.1058,1004,3.2387
25.1101,1007,3.2484
25.1144,1005,3.2419
25.1187,1005,3.2419
25.1231,1006,3.2452
25.1274,1007,3.2484
25.1317,1005,3.2419
25.1360,1007,3.2484
25.1404,1013,3.2677
25.1453,1007,3.2484
25.1496,1004,3.2387
25.1540,1005,3.2419
25.1583,1005,3.2419
25.1626,1006,3.2452
25.1672,1007,3.2484
25.1715,1006,3.2452
25.1758,1006,3.2452
25.1802,1005,3.2419
25.1845,1004,3.2387
25.1888,1003,3.2355
25.1931,1003,3.2355
25.1975,1005,3.2419
25.2018,1006,3.2452
25.2061,1006,3.2452
25.2105,1004,3.2387
25.2148,1005,3.2419
25.2192,1005,3.2419
25.2235,1006,3.2452
25.2278,1006,3.2452
25.2321,1006,3.2452
25.2365,1006,3.2452
25.2408,1004,3.2387
25.2451,1005,3.2419
25.2494,1006,3.2452
25.2538,1005,3.2419
25.2581,1004,3.2387
25.2624,1003,3.2355
25.2667,1007,3.2484
25.2710,1006,3.2452
25.2754,1007,3.2484
25.2797,1006,3.2452
25.2840,1007,3.2484
25.2883,1005,3.2419
25.2926,1004,3.2387
25.2970,1007,3.2484
25.3013,1004,3.2387
25.3056,1006,3.2452
25.3099,1007,3.2484
25.3150,1006,3.2452
25.3193,1005,3.2419
25.3236,1007,3.2484
25.3279,1006,3.2452
25.3322,1007,3.2484
25.3366,1004,3.2387
25.3409,1006,3.2452
25.3453,1007,3.2484
25.3496,1007,3.2484
25.3540,1007,3.2484
25.3583,1004,3.2387
25.3627,1007,3.2484
25.3670,1007,3.2484
25.3713,1006,3.2452
25.3756,1007,3.2484
25.3800,1004,3.2387
25.3843,1006,3.2452
25.3887,1007,3.2484
25.3930,1003,3.2355
25.3974,1007,3.2484
25.4017,1007,3.2484
25.4060,1007,3.2484
25.4104,1007,3.2484
25.4148,1007,3.2484
25.4191,1006,3.2452
25.4234,1005,3.2419
25.4277,1004,3.2387
25.4321,1006,3.2452
25.4369,1005,3.2419
25.4413,1006,3.2452
25.4458,1003,3.2355
25.4503,1005,3.2419
25.4550,1006,3.2452
25.4594,1007,3.2484
25.4638,1006,3.2452
25.4682,1007,3.2484
25.4726,1007,3.2484
25.4770,1007,3.2484
25.4814,1006,3.2452
25.4858,1006,3.2452
