105.7
-20.27
23.7
-0.18
-9.85
⸮⸮⸮78.76
68.76
94.4
33.75
55.22
3.01
-2.23
-8.36
-92.62
-91.98
-112.55
-90.66
-44.12
-42.44
-26.26
-49.12
-37.51
-59.61
-77.49
-56.24
-175.36
-253.62
-366.49
-442.5
-14.29
397.08
117.69
-271
-63.42
195.77
94.19
88.22
87.81
34.86
57.38
-24.56
-33.19
-16.39
-56.39
-12.6
-52.13
-77.63
-51.1
-62.53
-43.97
-82.72
-93.7
-84.4
-98.23
-48.49
-35.15
-10.55
23.85
60.33
132.59
136.4
169.55
172.46
136.97
166.81
116.48
75.27
39.05
-8.01
34.32
0.33
-40.51
-31.31
-26.77
-3.79
-36.75
-33.06
-22.41
-24.96
14.06
-12.17
-1.64
12.93
0.23
25.51
-12.2
-6.69
-6.53
-28.36
19.23
-5.34
-9.19
-17.97
-35.56
39.45
17.76
-11.77
-26.74
-63.91
-17.84
-10.62
21.96
40.16
-0.75
35.61
17.51
-14.76
-20.66
-47.44
-81.43
-205.98
-345.54
-303.76
145.18
411.55
-41.62
-241.96
71.39
213.53
196.85
138.61
89.13
18.78
-30.25
46.41
70.1
87.79
123.1
120.41
9.2
-276.17
-288.48
-81.62
-65.37
-63.38
-31.14
-31.5
-49.32
-16.28
45.9
5.88
58.11
136.06
124.46
149.5
153.22
203.53
193.5
89.8
66.25
33.6
44.29
47.01
15.14
31.37
-21.23
-30.07
-24.97
-22.46
28.27
-35.97
-35.98
-5.97
-12.27
46.56
-19.01
-55.32
-34.16
-39.38
26.02
9.67
-2.63
-16.19
-53.98
-1.03
-0.58
11.86
-21.43
-40.84
17.65
-116.98
-98.75
9.96
-113.9
-59.84
58.48
18.03
-23.92
1.19
71.58
22.34
-39.73
-163.86
-396.54
-378.82
-79.45
342.06
314.65
-204.44
-187.1
228.03
270.93
65.1
7.61
112.95
61.24
-33.54
-11.01
43.11
100.17
-33.65
-175.43
-68.92
47.13
-8.05
-107.68
-72.86
-92.66
-128.77
7.88
8.45
-79.75
-54.74
44.34
117.27
81.75
161.09
222.34
162.29
96.52
-22.31
60.86
143.43
65.34
63.44
-20.97
-87.77
-99.25
-73.2
44.4
14.25
-42.08
-60.33
-40.19
36.34
-33.1
-45.71
13.95
11.98
1.29
-41.71
37.64
48.46
-54.45
-54.13
-69.54
18.14
42.9
-64.08
4.99
16.76
-58.7
-104.45
-85.77
-4.14
-78.3
-34.51
132.72
77.97
-40.56
-57.31
-0.22
-104.45
-229.65
-190.84
-301.4
-197.92
270.22
276.1
-139.05
-136.77
150.55
125.34
76.29
140.86
55.63
50.47
84.88
63.58
49.89
-47.81
-35.14
-21.19
-88.99
-54.46
-67.29
-56.83
-36.54
-62.86
-51.14
-105.61
-56.24
12.24
-23.34
35.03
66.76
92.36
133.92
154.85
181.29
111.13
133.46
154.04
43.64
26.29
25.5
50.22
39.18
-6.42
48.09
-4.2
-61.51
-18.45
-22.43
-131.58
-209.83
-23.48
70.37
-8.09
43.43
28.45
-19.76
-32.3
1.16
43
-109.99
-99.26
52.07
21.02
12.54
14.46
7.58
-35.17
-60.59
13.5
-51.31
-88.61
-27.16
-0.59
49.22
18.06
-0.53
-10.76
-42.04
-2.21
-58.62
-150.94
-238.16
-347.09
-168
338.82
370.11
-220.68
-176.67
250.61
128.93
98.95
157.73
44.31
48.99
-9.94
-14.75
40.79
-20.25
0.38
-7.64
-63.24
-63.76
-70.47
-61.52
-82.44
-81.17
-76.87
-88.86
-56.06
-59.1
-15.54
23.71
31.69
106.51
126.1
177.24
202.3
147.26
163.92
108.41
64.13
60.15
2.71
9.84
-1.16
-11.95
-18.29
-41.49
-14.97
-30.2
-13.88
0.9
-20.6
-3.43
-35.09
-6.62
3.31
-45.2
-1.51
-13.9
-18.54
-9.34
-45.3
-14.31
-15.14
-6.45
-3.67
-24.93
8.47
-26.52
-41.58
-50.83
-71.62
0.78
15.06
25.3
26.84
-3.91
9.66
-38.02
-28.53
-32.7
-123.78
-176.05
-356.73
-385.77
26.23
352.18
114.01
-236.99
-51.21
207.59
172.37
160.97
121.67
88.54
65.48
16.32
32.57
-10.5
-17.5
-7.11
-46.16
-27.2
-48.07
-43.03
-48.79
-86.93
-52.28
-79.51
-59.67
-15.42
-27.75
25.93
30.32
55.61
116.89
142.19
188.92
170.65
164.37
144.35
92.13
95.33
40.15
25.75
24.1
-16.28
2.11
-43.35
-47.42
-14.38
-37.21
-18.34
-31.56
-7.76
8.09
-41.11
-19.35
-16.75
-0.43
-3.67
-34.1
7.82
-16.05
-4.97
20.91
-20.72
-12.79
-53.01
-49.43
-10.9
-16.08
20.85
-2.69
5.98
17.22
-30.51
-5.32
-25.6
-63.48
-123.6
-198.02
-248.4
-188.18
300.53
379.82
-241.63
-289.69
53.33
135.1
165.24
132.45
72.2
34.55
18.58
1.65
-20.96
-8.87
-35.52
-23.38
-26.96
-67.96
-42.14
-67.28
-71.15
-80.9
-105.67
-42.41
-62.06
-57.06
-7.61
3.41
73.22
93.41
136.66
168.77
132.9
152.64
110.9
99.88
101.01
14.05
0.23
-9.33
-11.96
-28.03
-78.02
-45.78
-37.36
-11.83
7.22
-17.09
8.57
-14.26
8.1
26.04
-19.63
6.82
-6.23
7.47
19.65
-29.9
-8.25
-8.51
10.5
7.88
-43.68
-27.5
-56.35
-32.87
10.93
-4.6
39.67
20.07
6.59
4.35
-44.1
-20.35
-64.29
-147.11
-200.53
-294.06
-195.38
220.05
355
-111.58
-208.27
167.74
162.3
101.86
118.25
25
57.5
23.84
-21.44
3.9
-42.49
-31.23
-27.67
-31.15
-38.8
-82.28
-55.39
-67.22
-71.03
-58.98
-88.12
-70.65
-67.47
-16.8
7.16
-6.82
89.95
120.6
144.84
180.78
143.93
151.69
106.45
67.25
42
-9.8
26.13
7.62
-9.3
-12.39
-53.66
-7.87
-13.7
-22.9
-3.66
-34.04
-9.32
-16.56
-6.16
15.56
-22.4
6.37
4.35
-2.39
-3.75
-43.33
-10.89
-10.05
8.53
22.25
-47.8
-51.25
-65.1
-49.4
-7.46
-8.81
40.62
19.34
1.7
17.89
-22.98
-15.32
-77.8
-172.79
-222.63
-318.39
-148.15
360.98
368.01
-221.07
-199.38
213.27
138.24
99.04
127.02
19.39
51.03
13.3
-23.49
0.19
-49.58
-21.38
-23.7
-35.96
-26.46
-69.13
-47.95
-57.39
-65.36
-69.9
-113.55
-60.56
-40.78
-17.1
33.4
34.17
104.65
139.74
169.32
193.75
133.33
133.98
117.78
83.06
52.7
4.37
21.21
-8.29
-20.47
-4.41
-42.9
-27.64
-34.15
-33.01
-19.87
-29.97
9.64
-21.01
-26.81
-1.74
-25.14
15.67
-0.55
-1.71
22.89
-29.73
-16.08
-20.94
-20.44
8.06
-16.98
-3.79
-31.34
-56.36
-54.36
-60.37
10.77
19.31
17.18
22.58
-33.89
-3.77
0.53
-41
-104.22
-221.93
-312.78
-368.71
-47.36
377.21
142.26
-236.33
-99.63
194.31
219.32
125.72
123.31
70.87
42.13
47.15
-3.21
13.14
0.18
-15.55
-11.96
-50.19
-28.91
-46.27
-60.77
-60.95
-97.1
-57
-60.12
-61.9
-19.1
-14.36
38.31
65.96
113.3
164.42
147.97
183.74
158.97
118.32
109.11
50.26
35.98
11.96
11.63
6.79
-29.7
4.01
-35.16
-42.08
-0.84
-27.37
-4.64
-29.33
-20.54
8.35
-36.56
18.14
15.81
-9.74
17.19
-19.14
0.48
-21.28
-36.36
9.12
-25.27
-30.25
-54.6
-69.47
-36.51
-35.9
5.97
-2.46
7.28
40.33
-5.02
-3.01
-35.54
-65.18
-101.47
-201.02
-273.3
-206.3
251.82
350.12
-191.15
-255.08
3.11
118.67
213.23
137.11
76.35
72.18
39.3
16.77
-25.35
-13.66
-28.68
-30.9
-27.06
-76.27
-52.01
-64.92
-68.79
-61.06
-110.67
-61.79
-47.78
-35.51
8.05
-6.47
67.29
112.62
138.01
177.35
140.57
147.91
122.76
95.51
76.97
7.22
14.04
-7.52
-14.18
-6.45
-60.86
-23.46
-20.75
-31.08
-10.69
-52.18
-24.36
-11.54
-15.71
-10.79
-35.96
4.37
-5.31
-1.81
15.38
-22.02
10.56
-17.99
-11.74
31.15
-18.54
-2.52
-41.81
-72.08
-29.99
-40.92
19.39
34.79
13.87
23.85
-12.63
-1.91
-21.64
-44.74
-99.87
-242.9
-320.08
-285.84
94.92
393.19
52.58
-187.39
23.3
175.24
131.7
84.4
87.19
34.13
27.29
33.82
-7.05
17.86
-20.71
-19.29
19.36
-47.47
-39.52
-47.19
-54.94
-35.51
-87.67
-65.29
-61.04
-47.33
-5.86
-32.16
32.81
91.52
125.32
148.9
116.2
158.54
141.48
114.4
110.01
26.39
36.83
32.05
-0.66
1.24
-42.64
-16.66
-11.66
-23.26
-23.36
-61.95
-11.53
-7.8
-19.38
4.02
-35.28
-2.81
3.79
-4.73
12.66
-13.78
10.53
-15.37
-14.52
13.82
-32.14
-1.45
-25.85
-67.51
-51.6
-54.46
24.78
33
6.54
24.58
-3.24
18.97
-11.25
-34.14
-45.08
-172.53
-241.22
-320.71
-131.75
396.98
294.47
-217.54
-116.74
179.23
125
85.71
122.61
29.99
12.34
18.03
-43.66
-3.15
-25.41
-53.73
-24.48
-59.77
-37.1
-60.34
-85.11
-57.85
-96.57
-74
-65.3
-49.99
-10.92
-39.09
12.79
47.19
78.91
143.23
143.75
185.41
155.93
111.65
109.64
53.34
60.33
16.65
-22.72
6.42
-23.5
-1.08
-13.09
-35.62
-19.19
-46.56
-11.39
-26.13
-37.07
6.48
-28.06
-8.93
-3.15
-12.98
-0.36
-32.49
1.52
-7.87
-21.83
12.49
-11.85
9.03
-0.73
-3.32
12.65
-43.94
-31.44
-35.15
-15.02
39.24
9.2
31.22
9.05
-6.95
19.86
-41.36
-62.39
-131.98
-220.43
-318.07
-317.17
158.92
386.42
-62.88
-254.15
43.86
211.45
130.75
119.99
101.61
26.27
56.83
29.52
-3.28
0.78
-41.23
-15.67
-27.34
-37.77
-31.48
-75.53
-43.71
-69.21
-87.69
-49.01
-92.03
-62.68
-35.1
-20.76
39.32
58.23
132.01
160.81
161.71
178.49
124.6
126.15
87.83
52.69
52.67
-18.12
4.93
-9.71
-46.81
2.06
-20.74
-22.34
-31.15
-32.53
-5.1
-50.2
-28.16
-2.27
1.39
10.97
-25.63
11.97
2.86
-18.09
16.38
-25.32
-15.22
-10.79
-17.44
15.04
1.65
23.01
-20.54
-65.51
-43.34
-50.31
14.88
22.08
4.14
30.52
-9.35
6.53
-12.4
-49.71
-56.78
-154.68
-236.89
-303.9
-90.7
369.03
265.85
-254.05
-274.23
110.15
209.45
126.25
147.03
81.59
47.82
50.42
-31.07
-2.75
1.54
-29.25
-22.7
-62.75
-42.01
-50.13
-45.07
-39.32
-116.66
-67.72
-52.15
-67.35
-8.97
-15.69
37.73
77.62
106.71
168.43
142.88
152.72
130.53
103.93
111.26
36.14
30.91
23.51
-12.77
-5.85
-37.3
-35.64
-47.74
-34.08
-3.91
-46.31
-20.12
-19.92
-21.71
11.3
-23.07
10.72
11.87
-11.51
15.06
-14.64
5.24
9.74
3.14
3.17
-47.8
-1.03
8.6
-13.7
-5.57
-67.59
-53.4
-35.19
-17.31
28
-2.31
24.45
33.94
21.23
29.24
-17.41
-53.17
-164.48
-231.08
-268.02
-236.1
227.62
366.43
-135.86
-247.57
51.73
157.35
104.87
110.31
92.09
24.65
37.47
0.02
-15.96
10.86
-33.08
2.33
-9.18
-44.47
-16.81
-61.16
-58.14
-61.64
-65.29
-38.82
-78.58
-37.79
-19.74
-6.53
72.44
70.63
117.55
150.76
151.25
178.39
127.15
121.05
96.99
55.33
45.91
-23.11
-16.3
-20.37
-42.6
-17.38
-43.87
-16.84
-11.31
-20.37
6.25
-23.89
-4.44
-15.36
-26.81
6.47
-35.63
-20.67
-16.47
-30.84
5.08
-15.19
-6.56
-22.09
-28.06
12.35
-13.02
3.36
-21.33
-60.54
-39.72
-63.26
-19.08
14.54
17.26
37.17
-1.07
16.66
3.29
-36.32
-63.41
-176.45
-224
-301.5
-193.36
328.37
368.53
-173.04
-230.53
133.47
184.5
84.21
112
59.21
32.12
47.02
-23.64
-2.2
-13.66
-47.15
-8.72
-41.77
-34.41
-43.18
-66.25
-46.09
-86.53
-73.16
-72.49
-68.79
-21.87
-48.32
2.51
51.88
84.29
162.03
143.7
150.37
161.58
151.22
133.46
47.7
48.29
33.08
-5.36
8.68
-34.81
-24.19
-38.77
-53.04
3.48
-33.06
-31.89
-24.97
-35.17
12.85
-2.05
0.08
-9.07
-7.3
30.69
-19.8
-15.08
-9.43
-17.14
12.56
-26.81
-9.92
1.16
-1.47
22.94
-37.61
-45.75
-47.96
-40.35
26.15
21.87
32.17
0.74
-16.34
34.66
-14.07
-27.12
-62.16
-157
-202.2
-320.42
-181.21
351.99
377.65
-215.41
-230.64
193.57
149.89
91.94
157.03
43.04
36.68
25.16
-17.15
11.84
-53.72
-45.5
-15.17
-39.39
-32.89
-75.99
-65.22
-80.62
-112.67
-67.31
-94.25
-83.88
-56.4
-31.65
35.9
24.15
76.86
138.52
156.93
195.65
139.76
130.84
114.76
67.9
89.39
19.17
-17.49
-7.94
-13.57
0.41
-44.12
-24.03
-15.3
-22.48
17.24
-23.8
-5.81
1.61
-10.62
27.39
-27.09
-18.27
-7.1
-28.65
7.49
-35.07
-24.05
-4.47
-23.51
7.08
-19.17
-3.4
-17.69
-62.44
-25.81
-45.6
-14.25
13.28
-3.47
30.09
-8.25
-5.36
-9.26
-41.59
-28.79
-141.21
-209.16
-274.7
-202.08
325.04
377.26
-242.75
-327.64
78.27
178.47
119.16
156.4
91.59
41.95
73.96
7.58
-9.31
0.13
-11.86
-5.37
-50.74
-35.98
-51.72
-81.14
-54.94
-115.46
-97.26
-60.85
-71.83
-12.56
-10.15
12.22
52.9
84.29
149.78
148.69
163.53
142.48
106
113.63
43.55
24.52
9.57
-10.09
12.12
-35.09
-14.64
-23.82
-46.05
18.91
-23.37
-29.34
-7.17
-17.92
10.3
-17.53
8.43
13.9
-10.24
22.08
-20.23
-1.98
7.94
-20.84
32.68
6.68
-15.84
-30.92
-59.7
-30.4
-34.38
22.98
30.25
-21.14
11.95
-15.33
-10.1
-15.45
-77.95
-95.46
-187.09
-294.36
-293.18
35.17
378.54
115.94
-197.78
-54.44
176.97
203.65
100.45
80.89
40.89
5.88
38.77
-11.24
-7.29
-11.91
-38.44
-0.44
-42.91
-37.3
-40.53
-77.67
-39.05
-72.64
-72.31
-44.68
-27.8
17.04
-7.99
34.71
76.34
99.38
175.17
156.92
170.92
149.54
90.48
114.22
51.95
27.31
25.38
-8.04
3.44
-43.81
-30.39
-23.2
-41.63
-6.69
-51.4
-24.99
-1.06
-21.83
27.3
-10.26
-19.6
-8.51
-22.87
13.31
-14.46
-7.44
-5.55
-21.2
15.97
-18.58
-7.21
-22.8
-72.58
-27.63
-41.51
-13.1
16.28
-11.41
20.94
3.91
-4.05
-22.6
-37.55
-34.68
-177.85
-259.2
-303.86
-142.23
374.19
278.37
-239.32
-119.32
176.23
149.83
88.1
87.22
40.05
22
29.53
-30.85
-8.83
-17.96
-64.16
-21.45
-53.28
-54.22
-50.12
-80.06
-52.13
-90.2
-85
-67.83
-69.2
-19.01
-33.24
15.56
60.68
77.66
160.77
148.47
159.05
167.58
126.84
122.04
50.26
36.55
28.83
-7.26
14.83
-35.5
-36.87
-27.93
-48.14
-13.19
-35.65
-6.41
-1.71
-33.35
6.62
-27.66
-12.28
0.07
-32.82
8.69
-18.09
-15.11
-3.92
-23.19
17.42
-8.76
-3.93
4.06
-31.6
-31.32
-70.02
-31.7
11.91
13.45
39.44
-7.82
2.06
0.75
-38.79
-26.8
-101.77
-167.52
-296.16
-391.19
-34.93
399.62
213.46
-245.31
-93.26
216.22
113.97
122.33
141.71
54.88
82.16
33.62
25.47
20.22
-42.45
-11.91
-36.94
-34.47
-18.28
-47.63
-33.65
-80.91
-82.98
-78.21
-89.22
-36.48
-55.7
-15.28
28.39
43.21
136.23
131.41
149.59
176.84
135.96
136.27
79.98
61.96
52.24
6.43
11.72
-30.1
-22.85
-20.23
-50.9
-13.7
-36.95
-20.23
3.18
-15.85
14.98
-16.52
-4.92
8.71
-17.42
20.46
-5.89
-5.24
2.15
-15.1
16.48
-21.54
-5.58
11.83
-24.6
9.18
-20.43
-35.98
-42.2
-66.04
-9.38
-2.28
12.43
-0.4
-29.73
23.26
-13.51
-23.33
-33.2
-126.37
-173.19
-325.27
-325.28
58.67
302.08
44.46
-256.58
-67.02
176.75
166.55
161.2
104.84
75.98
64.12
24.44
42
-20.05
-32.92
-1.77
-20.21
-12.79
-64.5
-60.94
-46.92
-75.38
-52.75
-88.77
-58.05
-10.62
-24.84
17.48
14.99
77.79
149.6
130.71
162.1
148.54
138.15
121.61
74.56
74.85
20.09
8.85
4.82
-38.39
-24.51
-47.87
-22.52
-1.13
-28.89
-12.11
-42.89
-24.81
-8.3
-34.11
-3.9
-23.26
-6.75
1.71
-17.74
15.69
-27.52
-15.4
-2.75
-37.34
8
-23.77
-34.93
-34.35
-71.01
-23.44
-21
6.66
29.04
-0.02
24.72
-9.77
-8.86
-10.71
-75.52
-113.05
-218.06
-299.94
-168.09
326.12
415.05
-262.96
-307.51
129.49
119.14
129.17
133.43
47.77
42.7
13.45
2.74
-17.52
-13.63
-21.81
-39.82
-11.21
-60.89
-59.84
-45.27
-77.7
-59.22
-92.8
-67.94
-33.25
-42.95
9.56
11.82
74.28
139.27
132.44
177.16
151.92
145.56
140.24
82.92
80.14
26.1
19.32
18.91
-31.26
-12.46
-38.25
-32.79
-24.66
-40.41
5.15
-30.15
-23.01
6.51
-18.53
4.41
-25.09
-1.76
21.63
-23.94
2.87
-13.83
-10.46
1.36
-24.8
6.81
-12.44
-2.82
10.37
-13.94
8.72
-38.31
-51.43
-45.51
-52.43
18.06
16.47
16.14
20.05
-0.11
25.6
-15.44
-23.2
-59.04
-167.17
-220.65
-314.99
-86.09
426.54
303.96
-204.74
-124.7
174.66
124.25
100.96
117.55
14.51
42.4
27.73
-44.67
-4.68
-41.44
-45.23
-25.67
-51.71
-20.73
-56.82
-65.19
-60.12
-109.35
-85.33
-79.72
-56.66
-34
-32.24
21.75
28.7
84.01
132.47
138.94
189.69
152.36
141.9
114.79
43.37
58.03
6.87
-12.58
-4.9
-37.86
-18.43
-51.1
-32.38
-6.73
-39.57
-14.26
-42.92
-30.77
-6.57
-38.08
-3.21
-13.26
-4.85
5.9
-22.56
10.78
-5.51
-0.99
6.44
-14.77
12.43
-25.64
-21.98
-10.12
-30.48
18.81
1.66
-4.91
-20.36
-73.01
-42.36
-37.52
17.51
52.73
3.76
22.96
3.03
-1.77
-0.98
-55.71
-96.61
-216.19
-348.87
-331.57
70.6
408.39
16.79
-248.92
33.29
170.15
164.57
137.99
80.82
55.44
48
45.66
-3.15
5.21
-6.84
-42.66
2.97
-29.76
-35.86
-33.81
-75.04
-40.43
-64.96
-70.23
-57.11
-67.95
-14.29
-20.89
16.65
84.47
109.46
170.65
161.84
173.58
171.5
123.1
132.79
77.46
49.87
25.28
-20.12
16.11
-23.61
-30.82
-9.62
-30.81
3.16
-24
-15.64
-2.93
-36.96
7.93
-13.53
-21.58
-8.72
-39.34
-0.85
-1.35
0.17
-7.1
-23.72
14.99
-35.04
-25.86
8.42
-38.71
-11.17
-11.89
-22.1
-30.84
-39.16
18.71
-2.27
-21.61
-42.57
-78.36
-10.42
14.74
15.67
6.57
-3.36
28.15
-19.21
-20.91
-17.81
-71.01
-111.41
-255.98
-331.91
-129.44
316.53
321.63
-270.31
-239.41
175.56
179.58
177.41
130.92
56.23
58.41
20.02
25.84
-12.22
-17.3
-13.78
-57.81
-29.22
-57.41
-67.03
-63.92
-100.09
-62.75
-79.59
-79.8
-55.46
-60.8
-9.24
-2.16
33.8
83.05
115.57
184.65
160.82
160.58
137.25
68.52
96.04
50.74
21.26
22.32
-23.15
-11.25
-36.32
-38.39
-41.14
-57.32
-4.91
-24.48
-14.42
-12.79
-52.43
2.21
-8.94
-7.37
11.18
-20.63
5.92
-16.28
-4.55
12.71
-27.87
-5.41
-21.12
-14.27
-5.04
-18.24
18.08
-30.3
-44.75
-31.39
-39.52
1.53
-15.2
25.4
38.97
-17.75
13.12
-21.36
-27.91
-29.83
-131.95
-185.55
-304.02
-213.56
249.57
331.3
-111.23
-259.07
27.79
151.96
134.19
153.18
68.46
55.29
48.84
-10.51
22.51
-13.61
-24.29
-8
-44.26
-18.07
-38.35
-40.98
-44.28
-74.49
-44.08
-84.72
-67.04
-20.41
-25.14
38.49
51.64
98.51
147.68
133.08
182.17
167.47
142.2
110.31
54.2
68.87
22.47
13.44
15.31
-41.86
-27.93
-46.49
-38.92
-23.47
-44.54
-10.94
-37.97
-30.21
-2.59
-17.98
13.93
-5.77
-3.59
-18.21
-39.78
27.57
3.89
4.15
16.66
-19.84
17.12
-11.13
-18.59
2.61
-10.85
17.2
-21.79
-41.28
-55.62
-73.91
-13.56
-6.33
26.01
19.47
-13.21
38.74
-4.31
-15.3
-20.58
-105.74
-148.47
-248.31
-281.6
-42.59
373.43
285.86
-233.48
-98.62
188.76
88.84
112.75
80.89
24.83
39.82
-1.26
12.19
-19.86
-23.31
-3.17
-36.91
-22.49
-45.58
-46.95
-57.27
-87.35
-47.32
-80.51
-83.27
-64.68
-74.15
-14.64
-6.25
44.99
98.73
100.89
176.95
176.71
171.87
168.76
97.35
83.73
45.57
20.34
3.08
-27.85
-6.94
-40.91
-35.72
-27.35
-52.62
-17.89
-46.55
-36.13
-11.65
-30.36
9.79
-15.32
-18.44
-13
-34.14
8.38
-16.41
-12.97
-8.83
-37.27
6.6
-21.11
-10.03
15.34
-28.02
-3.8
-14.03
-6.81
2.77
-34.32
-31.7
-70.85
-39.97
-2.15
-16.04
33.09
5.77
9.97
16.83
-41.7
-6.1
-45.67
-137.46
-203.93
-305.27
-180.5
253.27
339.45
-196.72
-294.89
143.48
197.98
147.83
144.78
38.45
40.86
14.19
3.27
10.05
-30.31
5.12
-16.87
-39.44
-36.06
-52.22
-27.54
-68.31
-72.76
-70.59
-110.66
-54.41
-39.93
-25.46
11.76
26.77
101.98
132.2
166.77
183.83
160.96
182.17
129.86
102.2
82.01
27.14
36.05
-6.49
-7.97
0.59
-40.52
-15.83
-39.59
-36.88
-23.44
-48.5
-5.05
-14.67
-13.85
-13.29
-38.47
9.09
-0.75
4.84
-5.92
-28.73
36.91
-5.96
-20.77
3.47
-31.26
10.69
1.59
-8.09
3.17
-9.28
17.26
-32.97
-46.23
-42.95
-70.72
-14.91
-10.65
4.79
18.94
4.8
34.43
-15.02
-10.03
-32.38
-152.03
-185.83
-299.38
-205.59
255.06
303.59
-170.73
-306.98
41.03
203.19
173.91
185.82
91.65
63.94
73.72
13.02
15.95
-12.93
-19.25
-9.7
-24.32
-16.4
-67.61
-58.57
-63.91
-100.36
-53.06
-84.62
-80.78
-49.97
-50.7
23.36
34.76
82.93
153.63
144.4
171
156.99
153.65
128.53
59.8
66.08
22.95
1.12
-12.8
-51.45
-17.84
-44.34
-31.83
-9.77
-48.63
-14.47
-28.7
-19.14
4.5
-33.06
-2.14
-5.31
-7.41
-3.96
-20.08
17.37
-9.65
-9.9
-1.39
-32.29
0.16
-19.5
-8.28
9.49
-29.84
-30.15
-77.69
-49.78
9.63
8.66
47.71
11.49
3.45
14.55
-28.56
-9.84
-56.22
-122.44
-193.08
-323.01
-277.54
40.75
319.75
93.03
-237.96
-71.31
158.99
165.6
101.72
65.74
80.14
29.48
14.75
3.54
-23.46
13.31
-37.37
-52.06
-39.2
-62.56
-23.93
-47.02
-48.4
-59.47
-94.54
-34.64
-52.35
-34.19
29.4
26.51
77.17
109.07
160.3
184.46
153.05
176.38
121.67
89.41
81.7
18.59
20.41
-1.32
-6.14
-12.86
-40.95
-7.23
-34.14
-28.78
-18.74
-47.89
-1.95
-7.88
-1.7
5.13
-13.69
28.37
-5.14
-5.52
10.62
-21.3
11.64
-12.05
-10.03
7.45
-33.65
-13.95
-20.86
-2.89
2.26
-32.7
3.52
-35.19
-63.4
-51.04
-48.88
19.52
18.62
18.47
18.81
-9.61
29.26
-19.13
-50.09
-60.18
-170.54
-240.21
-291.17
-54.23
393.77
228.06
-244.42
-113.81
188.89
121.77
82.08
107.34
13.56
26.29
24.76
-35
1.39
-23.41
-33.23
-33.09
-68.19
-31.83
-48.88
-53.58
-51.91
-85.74
-60.63
-71.45
-50.27
-36.96
-44.88
22.38
26.6
69.73
129
138.07
183.88
152.46
144.04
123.43
64.39
87.93
27.96
-6.64
-0.59
-37.64
-8.98
-20.35
-17.49
-21.43
-54.28
-10.97
-30.22
-27.59
-4.5
-21.59
5.16
-21.35
0.66
23.75
-19.87
4.86
-8.89
2.38
7.68
-32.87
13.37
-2.03
-30.13
-29.68
-28.98
-0.52
-66.09
-68.39
-30.85
-28
35.07
15.42
22.13
27.45
-29.34
7.45
-11.45
-65.24
-149.23
-238.78
-257.99
-144.43
355.08
344.43
-303.48
-185.47
201.68
148.15
121.28
101.84
68.71
41.15
20.6
8.67
-20.3
-7.7
-36.83
-27.15
-31.37
-78.75
-41.69
-58.54
-61.3
-71.21
-118.14
-61.86
-61.1
-60.57
-27.77
-10.06
63.07
74.27
117.47
161.03
146.17
193.24
154.06
105.26
83.08
37.76
50.52
8.51
2.03
-2.07
-51.84
-16.64
-35.1
-33.18
-24.53
-55.53
-0.15
-20.08
-30.36
-3.18
-25.51
20.84
17.81
-2.93
-0.02
-12.92
12.18
-12.69
-9.6
-5.3
-21.08
14.45
-26.2
-16.06
2.39
-46.76
-33.2
-62.62
-47.45
-9.29
-11.09
28.4
-2.37
13.19
20.69
-40.2
-15.93
-57.1
-112.2
-158.2
-281.23
-159.01
308.76
363.49
-260.04
-371.12
91.62
165.07
162.02
182.43
65.34
77.93
45.72
0.6
-0.43
-45.18
-22.81
-26.35
-12.3
-14.02
-67.44
-43.06
-66.61
-76.18
-74.52
-98.59
-47.15
-47.65
-11.1
30.25
16.81
93.36
120.41
140.37
162.86
149.08
168.22
96.63
69.59
65.02
0.99
12.17
-21.12
-28.76
-16.5
-47.45
-16.29
-40.46
-35.9
-21.65
-46.16
20.83
8.53
-14.53
2.35
-22.35
8.94
-3.11
-3.44
9.74
-14.84
13.31
-8.08
8.94
18.88
-59.38
-57.62
-58.11
-39.06
-14.09
-6.08
44.03
2.41
-2.92
7.11
-34.82
-6.67
-62.81
-131.34
-173.5
-288.5
-171.4
274.59
362.49
-163
-278.96
91.7
127.04
111.39
137.97
52.96
73.26
33.89
-1.75
18.27
-14.09
-5.34
-32.99
-33.85
-30.68
-62.04
-32.28
-57.06
-54.08
-59.12
-93.29
-30.99
-35.11
-16.38
28.26
31.54
108.24
124.67
150.47
177.68
135.26
143.32
95.37
69.03
63.14
5.32
5.59
-18.9
-3.91
3.54
-47.9
-23.33
-37.97
-25.8
-4.35
-36.3
-5.63
-15.28
-3.74
1.34
-26.18
18.58
-9.01
-6.58
9.32
-35.1
1.85
-7.65
-3.47
18.14
-18.68
-18.78
-75.13
-71.36
-20.62
-11.57
33.81
-1.43
-3.26
3.45
-37.47
-0.35
-51.17
-118.51
-184.99
-327.36
-290.58
59.19
375.06
60.73
-285.45
8.84
180.82
126.43
129.99
75.9
85.29
38.44
0.71
0.94
-57.59
-19.23
-18.32
-37.18
-25.4
-52.83
-34.96
-51.41
-56.51
-62.23
-97.05
-59.41
-57.18
-30.72
0.02
9.92
92.38
102.73
127.32
165.36
150.08
174.99
124.07
107.04
104.01
31.73
32.54
-5.69
-17.44
0.79
-37.32
-24.44
-31.79
-10.48
-3.57
-36.53
-0.35
-15.35
10.44
27.74
-25.3
8.17
-4
-12.68
-10.94
-43.23
-6.88
-16.71
-1.35
0.48
-51.23
-28.19
-60.8
-40.52
13.66
-7.95
34.86
29.34
17.4
6.93
-37.09
-8.02
-75.73
-159.12
-195.09
-311
-156.04
369.36
378.09
-265.82
-256.41
207.99
150.23
99.72
116.85
11.34
58.06
21.36
-30.41
-17.93
-59.92
-42.34
-52.06
-46.56
-44.64
-77.73
-49.39
-77.56
-80.15
-86.89
-114.19
-68.91
-89.44
-35.53
29.64
18.06
95.68
124.03
161.02
183.71
129.6
151.18
117.26
74.16
45.33
-0.99
15.06
-31.94
-29.54
-17.92
-59.5
-16.51
-39.57
-31.17
14.84
-13.03
14.88
2.76
-4.88
9.12
-11.15
6.23
-20.73
-5.92
4.87
-35.3
-7.19
-23.86
0.56
8.51
-57.44
-36.11
-53.66
-27.1
16.98
-14.28
22.8
14.42
14.69
11.2
-48.23
-7.02
-29.07
-111.44
-174.44
-290.39
-151.46
348.19
372.93
-296.03
-374.67
110.16
165.76
156.46
160.49
38.09
71.73
47.44
11.58
19.64
-39.22
-17.69
-20.81
-31.6
-36.67
-72.37
-38.86
-66.45
-82.72
-74.64
-94.92
-42.25
-31.8
-5.28
20.25
26.53
117.92
137.52
167.16
180.88
123.73
151.83
110.81
54.24
36.46
-3.76
15.03
-12.79
-20.58
-11.21
-44.76
-25.15
-25.89
9.14
13.01
-36.2
-3.21
-13.58
-9.51
-7.26
-29.29
8.61
-17.46
-0.03
8.82
-37.25
6.83
-7.44
-1.17
2.72
-71.21
-56.45
-49.94
-10.26
24.42
-9.57
21.34
5.4
6.26
13.85
-37.46
-49.28
-149.1
-226.18
-284.67
-200.38
311.45
388.67
-153.07
-229.23
96.69
170.4
98.36
106.62
62.15
21.73
42.07
-18.51
-5.18
-5.1
-54.26
6.28
-20.57
-30.9
-7.77
-59.82
-44.6
-69.38
-76.66
-47.75
-70.61
-40.49
-21.16
18.56
56.02
80.24
157.2
153.61
167.24
173.51
128.05
126.87
59.13
43.89
41.15
-19.81
-4.85
-28.43
-22.54
-12.75
-49.39
-10.3
-21.7
-28.86
-34.62
-52.76
10.74
-4.23
-14.15
-10.13
-30.93
18.93
2.09
11.56
13.1
-48.15
-9.71
-7.49
-6.06
-7.65
-36.71
14.81
-16.41
-46.53
-46.8
-62.28
6.06
8.11
12.37
23.29
-12.26
17.37
-14.82
-15.9
-26.44
-160.52
-234.97
-337.86
-243.85
209.29
339.5
-93.23
-275.47
84.66
206.93
97.26
138.6
58.82
32.52
74.19
-10.48
-10.29
-14.09
-23.82
-21.34
-63.4
-32.63
-28.16
-32.52
-58.77
-89.98
-45.31
-86.94
-76.24
-32.69
-46.94
26.11
32.26
52.27
123.87
137.55
178.63
161.07
155.24
136.67
61.37
70.95
34.06
12.59
9.77
-45.5
-13.2
-17.51
-31.72
-23.14
-38.21
-15.22
-37.9
-6.64
-2.21
-47.36
13.37
-6.8
-3.59
26.31
-25.87
-9.8
-15.27
-4.38
-3.45
-33.03
13.47
-17.42
-24.21
2.89
-11.02
16.08
-35.58
-67.75
-66.52
-57.51
25.35
8.14
-0.01
6.25
-22.36
11.58
-28.12
-33.56
-66.37
-205.78
-305.92
-393.23
-63.64
418.01
166.81
-247.26
-70.1
194.51
144
120.1
156.57
56.76
47.8
40.98
-19.49
19.7
-23.62
-31.85
-19.16
-55.94
2.25
-28.16
-48.47
-41.37
-88.88
-52.19
-71.15
-64.96
-36.85
-40.25
50.44
81.14
122.96
151.16
139.48
209.44
154.19
115.64
134.75
79.91
81.05
32.13
9.6
1.5
-67.2
-39.31
-43.68
-37.43
-16.03
-34.52
2.35
-41.22
-46.69
-16.53
-47.67
-15.45
-19.08
22.37
41.53
-27.96
-5.11
-25.69
-20.12
3.37
-27.6
16.79
-6.67
-11.69
3.4
-28.05
15.87
-27.06
-68.91
-58.67
-61.1
11.82
26.84
35.57
15.86
-27.49
35.75
-5.23
-46.43
-42.32
-129.52
-188.98
-322.96
-217.95
309.71
338.71
-228.3
-303.2
94.24
182.38
164.23
227.32
105.58
73.32
83.13
-36.05
-24.46
-17.32
-36.31
-27.41
-63.17
-35.46
-39.5
-57.44
-62.26
-84.94
-67.15
-88.14
-51.44
-27.4
-46.79
26.96
35.8
79.71
139.73
130.53
182.43
157.97
132.89
110.19
47.6
69.41
27.02
9.16
7.89
-41.62
-12.17
-41.01
-33.03
-11.19
-51.5
1.74
-16.79
-54.7
-51.36
-50.8
15.03
-8.9
-22.12
-10.82
-34.48
12.33
-8.25
-1.94
8.5
-32.76
22.53
10.01
-8.77
-28.95
-91.73
-34.26
-12.61
7.39
25.5
-14.49
20.04
-2.6
-14.56
-10.04
-79.1
-109.55
-208.86
-337.16
-234.82
220.73
418.28
-49.41
-225.73
42.17
113.98
121.62
97.53
51.84
34.22
-4.33
15.35
2.4
6.19
-6.59
-55.63
-8.96
-24.91
-39.55
-38.63
-75.21
-42.8
-64.22
-64.2
-45.39
-54.66
5.78
6.83
47.6
105.08
101.65
168.22
164.93
157.85
162.55
98.81
101.72
88.75
61.73
17.17
-13.3
20.81
-52.49
-60.37
-21.56
-68.22
-30.46
-21.89
-18.72
-0.85
-25.07
7.44
2.58
8.81
4.42
-24.65
16.35
-9.93
-7.96
-3.03
-38.68
14.86
3.39
-5.13
-2.48
-40.87
-17.27
-44.85
-36.64
-5.8
-1.54
48.88
8.83
12.77
36.14
-11.72
8.34
-53.23
-143.61
-210.94
-326.87
-167.65
307.92
340.56
-203.38
-214.17
170.88
108.55
76.33
101.17
2.98
52.88
12.32
-24.74
19.17
-30.76
-22.74
-25.09
-39.14
-45.65
-67.51
-44.66
-84.21
-78.47
-65.78
-103.55
-59.78
-61.05
-31.02
3.73
-7.69
85.11
125.36
155.77
187.25
150.03
150.66
101.43
93.58
79.31
-2.49
17.26
-11.13
-32.72
-20.64
-55.52
-23.2
-26.48
-23.44
-22.93
-54.67
-13.78
-34.65
-30.11
-7.38
-30.58
10.68
-16.34
-15.1
14.63
-20.45
9.13
-2.35
-2.61
-10.86
-78.2
-44.72
-37.35
-14.84
34.26
10.15
20
3.14
-0.89
-20.6
-57.93
-36.02
-139.49
-200.93
-240.07
-168.83
368.92
394.79
-265.08
-277.83
130.1
162.48
93.16
111.33
37.34
-4.77
43.91
-2.6
-13.74
-19.4
-54.7
-9.79
-39.98
-33.57
-23.26
-79.88
-38.13
-60.4
-76.21
-47.42
-67.39
-32.7
-31.39
6.42
48.75
52.01
141.92
163.54
179.41
182.61
116.14
125.84
87.79
54.4
34.11
-14.07
5.66
-31.98
-24.88
-15.16
-66.11
-7.31
-8.86
-23.88
0.15
-4.77
24.9
-12.75
3.06
26.08
-20.61
11.85
-0.56
13.76
22.06
-41.32
-21.72
-51.98
-43.39
10.32
-5.24
35.24
22.94
13.11
14.2
-30.23
-4.56
-59.62
-137.85
-179.77
-280.53
-143.47
323.6
370.14
-239.43
-333.83
105.01
139.74
116.48
123.08
25.99
68.96
17.32
-35.6
-16.49
-59.99
-33.38
-31.5
-29.14
-30.8
-62.16
-33.15
-69.15
-60.69
-54.59
-105.08
-46.3
-41.6
-33.46
13.05
33.17
105.63
114.17
140.22
156.94
123.5
159.11
116.19
80.02
58.98
0.55
19.22
-18.72
-37.44
-28.28
-46.27
-5.39
-23.04
-1.33
12.97
-30.77
21.6
13.46
6.46
8.1
-28.05
12.24
-11.23
-4.75
14.11
-38.64
-24.62
-61.11
-58.11
-14.39
-6.98
52.54
15.16
-1.78
-0.65
-53.29
-8.4
-59.85
-142.8
-185.08
-304.71
-205.13
204.7
351.4
-131.13
-349.47
54.28
182.13
139.44
155.48
51.61
60.43
45.28
0.65
4.36
-35
-13.85
-26.34
-42.08
-49.49
-65.98
-19.37
-61.38
-72.81
-59.97
-97.34
-40.69
-29.09
1.07
36.65
-3.21
60.68
114.58
147.14
161.24
139.22
174.78
131.31
96.08
68.95
-3.95
9.27
-15.51
-16.32
-11.6
-63.21
-19.81
-12.71
-9.24
3.41
-33.17
-10.79
-8.57
4.35
-18.21
-39.6
25.7
-24.75
-23.73
23.03
-12.36
28.68
-2.57
-52.98
-60.41
-74.65
3.16
25.51
27.92
27.27
-8.39
20.63
-19.42
-43.19
-66.98
-168.29
-186.83
-268.4
-136
399.47
355.83
-341.71
-379.11
125.69
171.62
107.83
170.42
47.98
23.56
36.35
-30.13
0.41
-37.37
-45.17
-14.79
-53.48
-35.4
-59.14
-55.64
-37.68
-74.28
-51.89
-71.4
-62.74
-49.45
-54.38
32.06
41.35
75.69
126.08
112.69
173.98
150.76
124.38
123.42
40.66
33.67
17.55
3.73
-1.34
-40.06
-13.53
-30.73
-15.6
13.51
-29.68
-19.05
-35.85
-30.31
-24.61
-49
5.1
-9.57
-9.21
11.15
-10.38
23.75
-33.78
-70.2
-52.64
-57.63
15.26
20.02
21.92
25.02
-22.2
11.24
-14.96
-38.66
-56.14
-151.25
-192.47
-264.79
-94.58
395.22
332.78
-279.44
-317.18
116.75
149.66
80.35
134.05
29.16
27.47
41.3
-39.4
-3.06
-27.15
-38.77
-23.65
-73.3
-43.46
-51.16
-60.18
-63.24
-87.71
-39.41
-50.25
-26.85
7.63
-11.05
53.38
79.55
116.19
144.31
130.05
171.99
132.77
117.97
101.86
34.5
53.64
7.88
-5.76
2.35
-46.94
0.23
-3.24
-5.4
12.99
-28.72
-11.38
-16.86
-3.23
-2.35
-33.48
11.99
-9.15
-2.64
14
-31.44
7.01
10.22
-2.13
-34
-84.49
-35.98
-26.11
27.09
70.01
3.34
15.66
12.75
10.88
2.05
-72.38
-99.6
-179.74
-285.76
-282.1
62.42
409.15
49.07
-255.74
6.12
131.77
110.23
103.77
67.61
39.6
18.34
33.22
2.05
-0.03
-9.83
-48.18
-5.78
-26.92
-39.65
-46.87
-74.92
-26.14
-50.01
-52.41
-45.72
-65.89
6.87
4.5
15.92
53.62
61.82
137.83
133.56
138.05
139.36
88.81
101.65
34.69
9.73
20.48
-24.49
1.16
-25.93
-29.49
-13.21
-35.74
13.19
-1.57
-4.55
-3.21
-28.41
28.9
0.85
-11.42
-4.7
-40.11
10.93
-6.25
-6.85
20.56
-23.06
-22.59
-60.36
-59.38
-22.64
2.43
52.27
-8.11
4.9
36.66
-30.45
-8.77
-39.74
-95.86
-161.86
-297.01
-279.17
19.76
403.03
163.56
-323.49
-101.64
168.09
124.86
115.38
72
53.64
19.6
11.18
5.17
-43.48
-9.43
-29.27
-33.47
-26.32
-75.28
-48.03
-55.51
-48.81
-48.46
-87.08
-42.68
-54.33
-42.48
-3.57
4.1
67.62
72.91
118.04
150.75
115.75
165.34
139.38
96.58
69.28
16.69
32.34
-8.07
-19.47
-10.64
-30.72
17.6
-6
-18.16
-12.82
-30.83
18.03
-5.3
2.56
17.52
-21.56
13.11
-17.38
-20.79
-4.87
-25.99
27.8
-5.2
-34.81
-42.1
-79.72
-22.58
3.99
34.31
28.28
-10.39
37.91
1.54
-14.66
-20.03
-98.8
-132.26
-246.01
-315.7
-78.63
366.01
265.77
-349.99
-216.65
213.06
140.51
128
105.65
26.15
38.38
6.36
3.95
-32.93
-45.09
-42.49
-72.91
-36.46
-60.93
-54.9
-34.94
-79.85
-67.35
-88.3
-70.79
-40.08
-41.16
20.3
23.58
60.29
104.02
111.35
169.23
144.66
143.46
123.2
59.49
80.44
16.7
-4.1
2
-55.27
-24.17
-38.14
-34.83
-20.06
-42.8
11.66
-0.91
-13
-11.09
-21.72
12.87
-31.46
-10.18
7.71
-34
24.36
5.09
-4.06
3.46
-62.91
-44.74
-34.63
17.8
59.49
-6.65
-3.29
-2.49
1.05
-11.73
-58.01
-62.63
-146.87
-227.43
-262.33
-55.9
382.67
244.46
-293.54
-299.7
58.45
181.55
115.95
132.53
90.46
24.12
56.77
9.53
-8.34
-13.86
-48.76
-13.23
-46.86
-44.58
-35.56
-73.69
-43.3
-69.96
-63.07
-56.02
-64.07
16.82
-0.32
20.36
84.63
91.64
153.71
152.25
166.99
167.33
97.07
95.82
51.04
14.32
-11.22
-32.52
1.11
-39.65
-21.62
-12.91
-50.86
0.94
-28.23
-29.09
2.83
-19.85
11.66
-5.18
-0.2
1.18
-21.96
26.6
0.48
4.6
19.88
-13.13
4.99
-46.49
-59.21
-37.41
-24.25
49.68
21.94
8.95
20.95
0.72
27.86
-20.27
-48.99
-110.63
-233.78
-290.72
-223.89
204.31
374.3
-63.41
-210.57
18.69
145.86
131.54
96.4
74.86
13.69
29.91
16.31
-26.05
21.66
-19.29
-26.71
-17.98
-47.14
1.77
-45.24
-72.08
-49.87
-70.3
-41.55
-66.32
-51.83
-12.33
0.93
65.7
64.69
106.92
147.28
140.54
176.58
121.09
112.81
102.37
31.82
32.57
-23.2
-19.91
-19.67
-63.42
1.69
-17.93
-28.41
-16.43
-40.17
15.32
3
2.17
6.34
-13.81
29.42
-17.18
-15.89
9.63
-15.08
19.68
-33.48
-31.36
16.99
-14.09
-13.82
-70.29
-70.41
-25.73
-4.12
43.32
-15.65
-1.75
27.13
-25.29
2.79
-37.16
-80.59
-147.89
-278.08
-303.39
-84.52
424.26
315.66
-277.58
-118.69
169.02
103.69
119.54
90.25
38.21
15.38
9.98
-8.83
-29.78
-12.82
-62.17
-50.05
-48.87
-70.94
-22.79
-67.54
-58.66
-64.9
-114.98
-49.8
-70.82
-59.64
-11.64
-11.29
64.56
89.94
143.78
175.77
138.04
157.44
94.37
66.69
64.73
13.52
14.02
-28.99
-17.43
-18.33
-57.94
-15.77
-47.89
-30.87
0.34
-41.28
-11.84
-25.95
-12.78
8.4
-20.57
-1.98
-29
4.02
21.66
-28.55
2.71
-15.37
-10.61
-4.67
-30.35
4.48
-8.35
19.07
-2.04
-57.76
-20.38
-58.95
-21.75
38.5
21.35
47.26
-2.6
0.98
21.74
-31.4
-46.02
-141.84
-219
-317.57
-228.58
343.12
399.31
-198.56
-239.27
128.95
180.37
112.72
135.27
79.06
43.61
53.56
-19.72
-2.6
-7.31
-58.92
-20.01
-46.58
-36.62
-36.58
-69.01
-29.03
-78.55
-79.82
-48.28
-63.8
-25.73
-34.62
0.68
43.81
62.6
120.5
106.73
147.15
156.71
108.75
136.87
84.13
52.08
33.35
-1.29
21.47
-30.46
-32.9
-33.51
-42.6
19.52
-24.8
-13.27
1.8
-30.41
32.75
1.45
-6.51
3.44
-33.55
16.67
-7.06
-22.84
-8.06
-14.56
14.08
-33.33
-13.32
4.81
-26.15
21.49
-18.28
-22.79
-1.2
-21.01
0.06
-59.52
-53.68
-27.92
-28.38
42.68
8.13
1.97
11.93
-11.3
26.16
-28.61
-53.07
-104.53
-233.46
-286.06
-150.48
337.63
325.56
-283.99
-248.1
112.78
166.26
165.88
148.65
88.91
21.49
22.32
4.88
-14.23
12.27
-36.48
-35.04
-47.86
-58.15
-7.21
-63.48
-58.9
-51.87
-84.69
-38.83
-68.32
-49.45
-6.41
-0.18
58.68
60.64
118.28
168.51
156.43
169.48
112.68
101.38
66.73
19.44
48.78
-10.46
-19.32
-20.01
-43.92
-3.85
-46.29
-43.14
-29.78
-30.4
18.01
-22.26
-5.25
-3.56
-30.15
20.28
-18.25
-3.54
4.39
-30.84
16.63
-11.57
-1.72
5.69
-22.8
19.77
-9.47
-5.41
-5.93
-16.67
31.79
-33.43
-61.65
-57.79
-47.98
20.44
1.04
16.77
2.68
-21.14
46.25
-0.16
-20.19
-43.08
-139.76
-179.53
-289.44
-175.08
293.22
364.74
-143.56
-284.43
103.3
172.13
94.56
150.15
49.34
34.65
43.72
-7.91
29.94
-24.95
-37.28
-13.36
-33.62
-15.74
-55.43
-42.34
-41.22
-70.59
-47.37
-83.8
-60.25
-48.85
-43.63
27.01
11.8
68.88
125.58
128.88
180.29
151.36
149.89
121.6
76.26
88.99
8.17
-1.38
7.25
-29.04
-11.62
-50.27
-45.42
-45.62
-39.29
26.19
-23.58
-28.65
-15.35
-22.05
29.15
-13.89
-20.36
-9.69
-17.97
22.17
-15.21
-3.38
4.99
-12.06
25.47
-15.98
-14.13
-15.56
-22.45
20.56
-29.52
-21.87
-19.86
-26.37
28.5
-25.68
-36.57
-57.73
-80.2
-0.7
-5.2
16.38
12.05
-14.7
28.56
-16.77
-19.48
-44.63
-124.77
-181.82
-361.43
-354.67
48.93
397.88
129.24
-267.16
-19.65
187.7
119.01
163.79
82.38
44.45
53.21
0.27
30.58
3.55
-11.48
-12.71
-15.66
4.71
-53.32
-37.21
-29.39
-57.94
-52.17
-98.22
-62.84
-61.85
-71.08
9.91
4.11
39.67
75.03
98.93
166.31
130.57
147.92
155.35
107.04
100.83
42.92
35.82
11.84
-12.19
11.98
-52.06
-44.6
-31.26
-32.65
4.25
-41.79
-15.44
-1.83
-28.97
8.92
-7.16
4.06
-9.93
-20.39
23.35
-20.5
-9.51
-0.72
-13.34
17.28
-26.69
-11.31
-1.21
-15.81
5.39
-40.83
-14.89
-12.68
-38.76
-5.82
-43.25
-20.69
-13.05
-37.55
-20.05
-47.13
27.58
60.87
27.24
48.98
-6.47
-5.63
-2.04
-52.52
-105.02
-246.2
-358.32
-267.34
214.58
409.77
-129.98
-262.21
97.47
191.3
163.24
117.1
79.52
45.34
21.78
34.15
-9.74
-1.54
-5.49
-22.86
-0.9
-29.35
-12.74
-39.68
-63.6
-53.77
-125.84
-88.73
-55.25
-60.13
-17.88
-36.66
7.68
45.69
81.69
143.22
127.49
174.73
159.72
118.39
133.76
60.27
47.62
28.93
4.33
16.94
-36.45
-12.06
-30.62
-45.81
14.81
-30.72
-17.37
-8.02
-35.83
-3.1
-14.73
0.37
-10.57
-6.05
14.14
-39.8
7.29
4.49
-33.25
11.73
-17.14
-10.45
-13.89
-17.5
20.22
-17.54
-4.32
-11.1
-25
-4.36
-48.37
-25.51
-28.82
-41.8
-22.5
-74.31
-41.09
6.03
48
69.15
-0.39
24.38
10.92
-16.79
-13.72
-118.2
-167.39
-303.53
-300.17
111.07
265.47
-9.71
-207.94
-31.04
212.28
177.88
136.26
126.35
94.04
66.04
4.27
12.41
-24.85
-33.4
1.99
-41.55
-16.73
-42.63
-47
-10.27
-85.22
-54.46
-52.74
-82.27
-21.69
-41.49
-17.14
8.76
31.41
100.62
97.21
138.05
133.78
108.26
135.65
81.69
67.95
53.93
37.38
34.88
-27.1
-18.39
-38.59
-47.88
-16.71
-49.62
-0.13
-7.82
-32.37
10.32
-31.3
-3.62
5.3
-25.71
-2.12
-19.97
6.53
0.52
-8.12
5.91
-35.34
12.72
6.86
-20.39
11.39
-20.19
15.08
7.69
-19.58
7.44
-31.31
-7.81
-14
-32.31
-25.26
-88.57
-46.63
-23.71
-11.45
59.08
20.74
18.62
16.27
10.71
28.74
-54.08
-101.31
-181.07
-300.22
-292.43
-18.11
355.55
143.67
-227.79
-43.84
164.41
167.62
131.42
92.81
72.38
34.04
45.91
7.02
-12.14
8.56
-45.87
-11
-6.79
-40.64
-33.34
-61.15
-26.39
-46.53
-64.25
-37.6
-67.44
-16.91
-16.08
-4.75
71.86
63.48
116.97
146.63
152.14
157.69
93.79
119.29
93.74
52.85
60.21
-5.61
5.31
-14.72
-41.12
-12.99
-47.38
-11.85
-23.98
-41.61
1.36
-28.73
3.27
1.66
-12.67
7.03
-31.9
3.93
-8.92
-19.27
19.08
-32.8
-15.43
-12.63
-17.12
8.98
-32.92
-10.25
-20.01
-25.32
6.23
-21.31
7.93
-38.39
-73.81
-45.26
-71.97
5.86
21.47
-6.97
20.87
-15.82
3.44
-23.92
-70.24
-108.4
-235.77
-298.83
-265.51
105.09
392.62
-12.27
-250.75
19.43
175.99
148.73
99.9
83.67
46.2
40.41
30.95
-26.6
-2.05
-21.7
-19.73
-1.78
-64.41
-33.82
-49.79
-54.93
-23.93
-96.51
-77.4
-65.36
-63.25
-21.64
-24.81
29.1
37.48
77.42
136.06
112.5
168.57
160.48
144.44
145.61
63.42
80.23
45.94
-6.24
11.57
-28.97
-13.97
-20.49
-24.88
-10.67
-41.72
4.34
-4.98
-9.86
11.11
-35.83
0.39
-5.82
-9.41
11.57
-38.6
5.95
12.65
-5.28
-2.61
-42.5
0.89
-11.53
-19.72
-0.73
-42.36
9.83
0.27
-27.6
-19.43
-85.65
-66.32
-45.81
-11.41
31.59
-4.98
32.14
18.79
-2.08
1.46
-65.58
-61.3
-142.07
-253.23
-305.62
-161.09
382.32
346.72
-247.92
-154.17
181.65
156.51
113.5
109.48
51.47
17.77
29.7
-17.61
-11.28
-15.55
-70.73
-0.58
-18.5
-50.82
-20.25
-69
-46.28
-50.71
-64.52
-55.78
-89.43
-25.13
-10.53
-2.45
35.23
18.93
102.17
128.52
131.55
160.44
111.93
131.27
103.16
59.51
36.4
-30.29
-4.96
-21.6
-25.41
-1.88
-42.55
-1.68
-7.82
-9.34
14.92
-33.29
2.19
8.99
-2.34
-3.7
-32.54
10.69
-19.41
-20.42
6.85
-43.91
-6.92
-9.63
-9.53
15.82
-25.82
-1.4
-17.2
-29.43
-35.67
-74.02
6.41
23.56
11.37
25.16
-20.83
-7.19
-22.05
-27.37
-62.57
-167.81
-168.21
-261
-160.38
354.2
334.59
-279.61
-332.04
104.73
188.44
134.19
178.89
88.63
64.02
51.09
-25.14
22.09
-8.08
-38.93
-26.42
-68.63
-27.75
-38.13
-54.78
-58.84
-102.53
-54.34
-59.27
-53.07
-26.95
-49.31
17.03
42.11
86.94
141.62
127.68
180.92
164.04
135.63
119.42
63.93
73.46
28.51
21.39
20.9
-39.1
-6.2
-30.91
-48.13
-20.75
-41.87
-27.07
-32.03
-0.13
-4.58
-37.69
18.6
-8.19
-3.47
2.92
-48.57
8.45
-1.36
-16.49
-1.33
-40.45
-13.55
-12.9
13.74
24.87
-50.98
-52.86
-58.42
-43.34
-13.27
4.49
36.42
-14.54
18.73
37.36
-32.88
-14.78
-80.51
-171.45
-265.07
-318.5
3.03
386.24
239.96
-191.2
-120.6
186.74
128.41
98.35
105.55
30.05
44.2
-18.44
-26.39
6.58
-19.33
12.76
-28.76
-33.22
-15.09
-58.28
-34.38
-56.4
-70.47
-88.99
-98.59
-11.96
-31.2
-20.81
43.65
51.86
99.14
102.96
154.64
174
107.14
141.47
134.06
112.21
69.45
9.96
40.08
-13.89
-25.08
-15.3
-52.94
-9.09
-57.81
-52.57
11.1
-2.94
30.29
-0.88
-1.21
-0.03
-45.62
12.67
3.11
-11.28
-10.88
-25.74
10.2
-38.79
-7.59
21.28
-40.16
5.09
-18.52
-27.68
-18.14
-87.27
-64.29
-65.46
-44.31
10.47
14.46
28.86
-15.28
4.67
4.5
-58.68
-65.62
-176.4
-224.47
-280.74
-200.02
342.8
319.65
-244.76
-142.11
193.19
166.29
97.3
97.29
24.97
-9.24
34.19
-28.47
-30.92
-10.81
-43.82
-2.68
-46.82
-54.34
-30.44
-75.22
-47.86
-74.73
-86.3
-75.1
-76.81
-24.19
-53.3
-5.32
40.5
21.43
124.21
143.71
159.76
183.66
153.99
161.53
60.33
36.25
43.86
-15.21
24.6
-14.36
-31.57
-24.19
-63.93
-20.39
-38.15
-25.8
0.33
-16.28
12.18
-23.16
23.44
31.14
-38.32
10.05
-27.74
-28.06
-6.6
-40.29
6.68
-30.49
-11.7
17.26
-25.35
11.36
-36.37
-44.69
-35.81
-69.58
5.58
36.81
55.44
18.42
-7.9
62.77
-14.67
-50.4
-65.42
-161.36
-199.15
-368.34
-332.35
163.91
408.7
-11.9
-309.04
48.38
231.26
134.55
176.57
81.2
35.07
59.04
14.77
25.08
-28.82
-7.19
22.54
-19.8
-8.08
-76.33
-82.5
-56.49
-79.44
-48.16
-84.43
-66.22
-30.56
-33.81
10.53
-14.23
50.49
120.21
118.78
190.55
168.35
156.47
158.96
107.3
94.55
38.24
30.21
-7.94
-41.35
32.13
-5.04
-18.5
-16.45
-41.43
14.59
-9.46
-8.79
3.61
-10.72
33.73
-2.68
0.59
16.31
-18.04
-14.72
-28.71
24.09
7.62
-33.79
29.6
-0.22
-3.23
-11.68
-61.47
-54.27
-76.68
-15.12
20.29
12.77
39.89
-18.29
12.15
13
-43.92
-33.23
-147.48
-219.98
-327.22
-302.73
203.99
354.01
-33.53
-199.48
-48.66
147.83
161.53
100.11
58.54
35.71
65.05
32.04
0.38
-42.92
-53.89
-10.61
-52.89
-52.59
-65.52
-69.41
-24.18
-90.54
-91.84
-86.31
-97.33
-27.83
-35.37
-0.5
35.46
62.47
140.93
118.82
157.56
178.21
124.36
127.45
66.65
48.96
35.32
10.67
26.98
-45.29
-39.42
-28.88
-48.77
-4.51
-36.33
-16.02
-14.59
-25.93
31.46
-20
-8.47
11.84
-11.99
25.64
-14.21
-11.8
-2.67
-1.72
27.47
-35.41
-0.33
5.83
-46.87
-11.8
-55.88
-37.35
6.61
12.73
53.48
20.68
25.98
2.16
-22.2
6.41
-95.03
-185.99
-283.11
-336.48
-47.62
430.06
387.45
-161.35
-110.44
199.34
55.13
63.62
93.91
20.56
48.59
-28.19
-22.25
-5.67
-33.89
12.44
-30.11
-36.33
-35.67
-60.25
-46.82
-77.12
-52.3
-67.92
-63.7
-10.01
-44.34
6.76
26.15
50.4
146.41
123.26
151.22
168.32
144.98
153.99
108.99
107.76
51.75
42.75
81.41
-22.97
-30.37
-28.6
-25.1
29.84
-34.51
-23.38
-9.7
-4.77
28.57
-41.98
-15.18
-7.12
-22.72
10.75
-40.42
-4.85
-8.95
-24.71
21.08
-46.25
-22.53
-6.49
-31.25
-21.28
-93.48
-69.26
-55.95
-32.36
40.06
-19.92
-7.25
-15.06
-23.47
24.29
-64.11
-102.05
-187.71
-307.89
-333.1
-119.13
461.87
358.87
-233.67
-75.12
170.98
101.58
91.43
66.66
23.81
0.51
10.65
-42.41
-44.19
-12.66
-78.47
-45.48
-48.09
-62.12
-42.84
-101.41
-70.55
-97.23
-111.6
-61.37
-96.56
-28.52
-14.99
-23.72
38.24
33.25
126.09
159.34
152.87
192.17
119.11
101.6
71.11
54.65
61.97
-29.64
-10.75
-21.71
-44.95
-8.47
-48.93
0.16
-6.18
-34.89
-0.29
-55.59
-20.82
3.81
-1.27
23.99
-25.24
8.97
10.53
-16.19
-11.9
-56.93
6.42
8.58
-24.31
-1.07
-29.51
41.6
12.09
-79.12
-53.8
-65.44
-20.55
6.49
26.02
39.92
-20.97
24.3
0.7
-47.95
-11.66
-69.54
-149.29
-267.93
-338.67
-127.11
384.79
417.27
-218.11
-151.37
229.72
71.21
104.65
132.64
32.02
55.53
-12.69
-5.11
-19.92
-47.94
-21.15
-81.85
-43.86
-43.8
-44.47
-0.85
-83.55
-80.39
-87.23
-88.9
-42.72
-64.64
-0.86
3.72
24.72
91.79
72.05
157.38
171
156.76
186.19
112.45
110.52
70.07
28.83
28.36
-34.63
4.85
-14.17
-42.07
-15.42
-53.51
-1.1
-1.68
-6.5
22.03
-36.25
3.85
12.94
13.1
25.25
-45.6
-7.58
12.48
22.39
18.11
-46.6
24.94
11.86
-21.73
31.08
-4.87
1.35
-20.54
-52.26
-60.35
-65.49
33.25
18.36
9.74
52.52
-11.53
7.88
-8.58
-48.73
-85.83
-207.19
-294.37
-377.21
-79.76
392.62
207.84
-202.08
-113.88
202.47
215.22
110.84
137.62
60.3
40.65
56.86
-18.04
26
5.44
-28.74
-6.25
-41.44
-12.18
-52.22
-65.72
-35.18
-92.94
-55.05
-42.59
-36.84
-21.92
-54.02
21.01
52.37
93.6
129
102.39
180.98
163.21
138.93
133.52
39.38
51.74
8.58
-19.76
4.94
-57.57
-24.87
-18.78
-22.78
-10.45
-55.34
-6.35
-12.28
-20.34
-1.73
-37.73
9.73
-6.22
-3.61
10.96
-56.51
-1.67
10.13
-2.04
2.77
-41.27
14.81
10.31
-17.85
-41.48
-89.63
-11.56
-7.47
-2.94
20
-34.26
13.78
5.91
-16.32
-26.12
-98.97
-101.63
-186.67
-301.25
-273.47
33.71
356.82
104.34
-196.17
-70.64
111.06
176.26
102.87
75.05
56.46
-8.06
33.64
5.28
-12.05
-6.54
-52.88
-17.57
-36.41
-22.37
-17.83
-81.37
-39.4
-66.96
-76.2
-60.97
-77.49
14.36
10.46
27.62
89.7
80.54
152.26
156.53
160.12
168.54
107.69
119.18
68.13
39.99
26.87
-31.03
-7.56
-37.53
-19.41
-11.62
-65.98
-7.76
-14.64
-11.38
-6.92
-37.04
29.93
-3.39
-16.32
-6.25
-37.87
29.89
-0.15
-10.88
10.36
-33.57
9.36
-1.03
1.78
6.78
-29.06
7.54
-54.06
-67.96
-28.8
-37.87
21.51
2.51
9.36
25.33
-17.52
12.95
-22.67
-50.84
-128.96
-246.76
-272.19
-220.47
223.92
402.02
-102.24
-213.67
70.15
140.31
99.05
84.76
77.94
28.95
19.87
-34.81
-45.93
28.19
-53.36
-48.58
-22.37
-75.89
-22.09
-57.55
-58.06
-39.01
-92.81
-54.53
-74.68
-52.91
-22.77
-47.94
21.16
33.43
96.45
151.97
131.35
189.78
154.49
126.52
106.5
40.04
53.81
6.29
7.16
13.51
-37.27
-8.07
-37.66
-31.17
-18.28
-29.38
24.25
-20.14
-6.44
10.26
-33.86
10.88
-15.24
-3.36
3.8
-31.92
10.55
-32.29
-12.05
4.31
-40.63
16.79
-8.87
-18.55
-40.28
-83.08
-19.02
-54.65
-14.83
39
-7.96
31.72
-12.37
-12.11
9.14
-65.51
-66.21
-155.61
-279.47
-343.82
-82.23
459.72
273.39
-229.09
-66.44
177.94
126.83
85.12
106.13
44.19
13.38
51.15
-25.33
-17.09
6.49
-35.62
-9.91
-60.68
-48.46
-32.93
-86.18
-56.87
-89.08
-78.87
-63.05
-82
-30.04
-46.03
10.55
61.81
62.56
147.51
142.26
170.52
174.14
115.83
150.3
103.02
79.08
48.03
-19.96
2.1
-35.76
-17.88
-6.83
-35.73
9.44
-23.51
0.94
3.67
-27.66
21.13
-38.52
-21.77
8.93
-19.95
15.97
-34.55
-17.59
6.06
-17.99
10.43
-45.95
-17.23
4.2
-26.77
16.36
-53.84
-77.93
-59.76
-46.9
40.75
14.47
9.67
16.21
-3.63
27.9
-43.43
-68.39
-98.08
-179.4
-254.07
-340.92
-25.92
325.65
126.88
-199.97
-152.77
174.88
210.23
109.79
148.42
57.23
38.98
35.8
-12.85
18.93
-25.4
3.63
-14.9
-66.32
-3.22
-63.32
-68.74
-58.77
-92.19
-42.43
-77.83
-52.76
-20.89
-22.85
46.74
33.99
90.7
151.04
165.64
200.37
118.31
121.47
116.25
55.06
67.49
-8.86
-17.26
-15.25
-43.76
3.3
-41.29
-38.26
-32.01
-30.86
25.29
-33.64
-8.43
-0.7
-42.86
21.81
-13.01
-10.67
8.14
-6.17
35.55
-21.04
-18.8
13.41
9.26
12.18
-67.72
-56.31
-46.59
-36.02
40.63
-3.2
6.55
7.11
-11.34
35.31
-36.19
-69.81
-121.26
-200.16
-254.45
-289.04
75.19
372
118.97
-144.36
-64.62
138.91
98.5
50.29
97.96
7.17
14.34
14.12
-21.36
30.09
-24.44
-24.93
-20.4
-41.69
5.2
-35.55
-27.5
-40.85
-76.66
-37
-76.82
-42.08
-3.48
4.9
67.62
52.86
107.84
146.47
149.53
191.69
129.93
120
93.69
52.56
64.68
0.53
12.59
-8.59
-30.61
11.06
-58.07
-40.36
-25.95
-27.31
17.39
-37.03
-5.14
-6.6
-26.28
28.42
-20.92
9.43
25.95
-4.6
18.17
-29.49
-12.49
-15.8
-19.54
3.3
-85.29
-68.65
-47.29
-42.05
21.12
-7.91
9.85
-4.22
-25.53
13.08
-35.54
-53.48
-129.29
-220.34
-299.53
-319.04
124.52
391.87
-4.07
-223.78
28.55
195.85
98.61
99.9
98.6
-13.23
38.05
15.84
-26.95
19.57
-50.54
-33.3
-17.86
-34.96
-21.71
-82.94
-44.47
-54.69
-78.19
-25.95
-76.67
-60.14
-44.38
-10.4
57.45
23.99
101.39
138.76
135.6
198.65
151.39
126.18
86.12
60.76
56.09
-21.03
13.07
-6.23
-31.41
8.9
-49.05
-19.63
-17.5
-27.4
13.15
-43.07
-12.2
-15.66
-34.54
20.7
-14.86
13.76
22.33
3.48
15.98
-32.77
-3.82
-15.17
-11.05
25.51
-51.15
-46.07
-59.06
-55.27
4.49
-11.64
30.3
0.67
-14.9
22.34
-42.64
-16.87
-58.07
-163.96
-200.99
-333.95
-194.44
338.81
378.03
-222.74
-252.01
198.17
158.98
112.92
159.17
11.69
46
38.37
-9.89
34.53
-43.17
-40.38
-32.36
-59.22
-36.79
-55.01
-27.1
-65.2
-76.04
-45.37
-94.51
-52.16
-58.08
-36.1
28.99
-7.42
79.37
135.71
141.4
169.15
126.52
157.87
119.77
87.32
104.17
8.64
4.91
-15.5
-36.27
6.13
-38.52
-18.31
-6.97
-7.34
-1.2
-39.17
10.6
-4.08
-11.23
-2.98
-59.14
5.04
-8.98
-15.99
26.9
-48.29
-6.79
0.94
-35.97
-12.17
-40.56
-7.14
-36.84
-54.21
-34.22
-73.83
9.6
0.7
-25.54
21.99
-27.64
3.68
-12.1
-52.31
-74.74
-203.69
-301.83
-326.68
16.4
340.73
55.23
-211.67
-105.14
148.2
234.15
128.33
129.44
78.19
39.11
43.24
-30.23
4.95
-21.53
-40.75
7.42
-43.58
-35.59
-49.22
-44.32
-41.73
-116.91
-63.1
-47.76
-39.19
4
-20.14
41.7
62.59
103.3
172.18
160.15
196.74
151.27
134.06
128.84
25.14
38.64
2.6
-25.01
-1.33
-56.34
-19.78
-22.9
-26.2
-13.17
-60.87
-2.14
-14.51
-14.64
30.24
-20
18.98
10.7
-2.67
19.46
-29.59
3.06
-6.92
-3.45
12.71
-50.7
-26.12
-55
-49.05
-14.92
-47.43
34.2
18.02
-5.87
25.7
-42.1
-27.83
-38.57
-64.84
-120.31
-271.42
-287.74
-77.58
383.66
340.45
-258.41
-184.55
161.53
128.23
91.72
70.6
63.58
37.16
11.96
-11.03
-46.32
7.59
-31.28
-46.15
-12.95
-57.12
-24.93
-48.57
-63.49
-57.09
-97.02
-30.89
-34.74
-25.49
20.6
2.81
89.35
125.45
145.79
171.65
138.92
168.96
123.34
113
101.03
8.97
32.4
-12.38
-32.56
-8.59
-53.07
-5.17
-23.67
-24.81
0.58
-43.75
6.53
-9.39
-12.01
16.94
-20.43
23.92
3.17
-7.19
12.4
-16.88
5.89
-38.27
-16.07
11.97
-34.02
9.62
-40.81
-53.02
-18.97
-30.79
41.63
8.9
12.04
42.1
-20.67
2.75
-38.27
-77.49
-143.17
-266.28
-279.39
-134.57
352.84
339.08
-230.64
-93.2
185.7
107.46
98.64
55.17
36.24
12.64
-2.77
-17.39
-58.72
-3.23
-31.54
-46.3
-25.49
-68.32
-56.04
-90.96
-68.66
-56.24
-117.52
-69.57
-69.73
-36.59
-3.81
-30.64
50.05
66.69
104.97
151.46
133.73
175
122.13
106.19
97.72
17.36
32.5
-5.66
-9.35
-5.96
-48.64
-2.48
-40.18
-31.9
-3.51
-45.15
0.52
-22.67
-18.4
-3.71
-32.79
27.7
-14.47
-25.09
0.76
-32.87
19.64
0.41
-8.96
7.09
-11.15
10.95
-64.37
-77.48
-44.54
-43.45
28.9
11.87
17.15
23.32
-14.89
15.38
-35.43
-66.26
-147.72
-275.79
-314.27
-240.33
257.61
401.74
-161.1
-228.97
101.1
173.61
121.4
99.59
97.64
20.91
22.12
23.29
-20.33
9.64
-33.21
-29.48
-46.55
-78.03
-9.85
-71.21
-79.87
-59.81
-85.1
-34.1
-75.79
-50.9
-22.2
-26.78
75.5
64.8
104.51
162.15
151.36
193.67
124.06
114.44
107.68
33.98
58.9
2.81
-8.47
3.21
-30.82
3.3
-42.22
-18.85
9.09
-22.76
21.51
-27.82
-22.7
9.84
-10
22.8
-21.54
4.73
22.49
-23.59
14.71
-27.23
-14.1
10.29
-24.54
21.05
-14.48
-28.83
-31.89
-63.12
-19.72
-16.89
35.66
32.19
-3.23
41.77
-25.61
-25.45
-21.53
-86.42
-121.27
-264.65
-329.9
-142.71
364.04
406.23
-301.37
-248.68
223.68
150.23
151.82
131.28
29.05
34.98
13.28
13.73
-32.34
-21.02
-27.9
-77.38
-23.88
-49.12
-56.86
-60.91
-67.85
-26.11
-106.4
-90.85
-45.8
-45.81
28.46
1.05
33.67
97.89
113.84
168.67
129.36
127.46
111.26
74.3
101.24
23.36
6.69
0.82
-30.43
9.67
-45.48
-34.82
-20.59
-51.11
5.47
-27.51
-20.11
3.17
-4.75
29.49
-33.69
-18.4
-10.14
-34.03
38.3
-8.51
-19.93
-8.37
-19.52
28.55
-27.81
-36.58
-48.42
-58.25
18.64
-16.93
7.93
21.31
-15.07
27.75
-28.51
-31.94
-41.29
-114.93
-140.61
-304.72
-222.29
231.73
318.03
-66.76
-237.23
0.41
150.57
170.79
163.78
54.8
51.84
24.9
-5.29
58.58
6.97
-3.92
-28.86
-45.3
13.34
-55.88
-62.51
-61.73
-68.92
-7.93
-60.84
-52.46
-27.71
-10.16
57.82
39.98
101.95
127.68
140.1
204.94
115.94
127.79
137.33
58.37
73.6
30.5
11.7
-31.76
-58.37
0.05
-59.13
-39.65
-17.02
-53.56
-3.12
-12.88
0.05
-12.26
-18.33
25.97
-27.33
-14.36
-61.87
-59.7
79.73
-1.54
-24.76
48.96
42.27
24.17
-86.6
-103.22
-25.97
37.85
42.43
-24.6
16.65
-2.88
-21.05
20.14
-52.46
-36.91
-82.88
-188.42
-227.61
-365.41
-124.88
416.43
327.26
-148.68
-86.79
178.99
75.89
69.68
118.3
-17.83
8.38
-5.91
-47.93
15.62
-33.03
-22
-40.16
-73.7
-45.81
-104.17
-59.37
-68.87
-101.65
-47.24
-106.34
-70.25
-24.55
-1.19
49.47
4.14
103.92
171.25
151.7
198.18
147.4
136.74
96.69
51.34
73.81
-17.43
-33.45
-18.39
-4.1
8.67
-74.3
-18.92
-12.06
-36.08
34.38
-20.02
-14.37
-16.08
-44.74
-3.33
-28.2
13.42
7.24
-13.57
18.01
-43.26
-2.6
16.8
8.32
36.74
-43.89
-41.48
-59.08
-62.82
35.56
20.55
24.07
8.5
-0.78
5.62
-74.35
-42.77
-86.26
-195.12
-312.56
-461.08
-96.51
423.49
249.41
-186.55
-60.41
247.14
149.48
113.57
126.26
-15.37
23.44
-2.74
-49.44
8.28
-40.84
-26.26
-42.19
-51.04
-31.45
-109.7
-55.41
-43.61
-65.75
-55.18
-113.53
-27.96
-28.23
-62.48
26.45
30.69
97.83
131.14
159.74
216.95
146.69
151.67
110.7
83.45
121.15
12.56
-38.23
-71.04
-55.68
-14.33
-59
28.46
32.75
71.44
203.1
4.9
-178.31
-146.7
-74.09
-49.31
-82.97
4.31
30.69
22.56
8.31
-54.42
52.31
21.25
5.26
99.32
-26.46
-46.6
-30.83
7.42
40.68
-31.45
86.04
-40.49
-174.35
-8.33
-44.93
-3.07
25.76
-62.23
-134.26
-337.1
-300.65
-39.95
263.36
170.02
-285.17
-118.32
178.69
201.24
297.23
219.47
63.79
-65.23
-19.03
-25.19
-198.22
-13.11
71.77
-45.75
-14.27
-10.13
-56.06
-205.34
-89.92
35.38
-144.21
-54.57
-50.34
-95.41
38.44
-39.02
9.76
100.62
120.44
201.56
163.78
130.1
25.73
43.32
130.29
-19.45
8.89
87.19
26.96
-57.91
-115.38
14.06
61.04
72.09
-12.35
-208.45
-39.71
47.12
-7.72
60.72
-9.16
27.03
64.78
27.27
10.7
-59.82
8.04
-10.64
-20.21
23.91
-81.57
22.5
84.84
-40.06
-54.81
12.99
72.5
-16.65
16.64
98.54
-2.17
-38.97
-176.06
-217.94
0.1
155.53
45.42
-420.89
-427.63
67.03
229.06
235.63
97.18
-5.47
112.33
105.83
96.63
29.8
-29.79
26.77
14.99
-11.33
-90.89
-33.39
19.05
-103.27
-53.47
-39.82
-28.15
-6.44
-52.88
55.34
19.73
93.03
252.38
120.82
103.67
93.03
101.52
122.05
1.11
56.45
59.72
34.88
20.74
-93.64
-20.56
-2.34
-0.97
12.88
-81.29
20.37
-2.4
-102.75
-16.88
-19.37
8.19
-3.77
-58.5
1.59
37.54
28.29
-24.55
16.37
3.26
-73.36
3.02
-59.05
-38.16
59.11
-39.5
13.04
29.07
-3.47
-10.64
-129.92
-96.61
-120.63
-114.36
-35.64
-49.14
222.9
108.92
-468.24
-383.19
84.98
243.26
145.4
120.8
181.83
106.85